1	2	3	4	5	6	7	8	9	10	11	12	13	14	15	16	17	18	19	20	21	22	23	24	25	26	27	28	29	30	31	32	33	34	35	36	37	38
     0	-0.00001	 0.00002	-0.01698	 0.02422	 0.00838	 0.01416	-0.01794	 0.00634	-0.01838	 0.00686	 0.00861	-0.01248	-0.00880	-0.00218	-0.00944	-0.00069	-0.01793	-0.00212	-0.01565	-0.00291	-0.01744	-0.00166	-0.01251	-0.00087	-0.01670	-0.01076	-0.04669	 0.01703	-0.00949	-0.01796	 0.00002	-0.00005	 0.01997	 0.01403	-0.00048	 0.00032	NULL
     1	 0.09568	 0.04069	 0.07904	 0.09988	 0.17521	 0.14260	 0.18366	 0.04678	 0.04738	 0.04871	 0.06620	 0.05837	 0.04076	 0.02758	 0.08079	 0.01041	 0.14816	 0.04809	 0.10529	 0.05295	 0.09529	 0.02339	 0.05062	 0.04032	 0.26708	 0.07130	 0.08641	 0.02541	 0.24488	 0.12479	 0.09376	 0.07504	 0.25550	 0.13173	 0.39406	-0.15497	NULL
     2	 0.09568	 0.04069	 0.07904	 0.09988	 0.15862	 0.16632	 0.18366	 0.04678	 0.04738	 0.04871	 0.04599	 0.05668	 0.03899	 0.02715	 0.07936	 0.01009	 0.14305	 0.04795	 0.09929	 0.05135	 0.09280	 0.02029	 0.05062	 0.04032	 0.25010	 0.06043	 0.08641	 0.02541	 0.21478	 0.13609	 0.09376	 0.07504	 0.26216	 0.13829	 0.13842	 0.21210	NULL
     3	 0.09568	 0.04069	 0.10750	 0.08982	 0.15862	 0.16632	 0.18366	 0.04678	 0.02892	 0.05564	 0.05468	 0.04415	 0.03546	 0.02627	 0.07419	 0.01034	 0.13406	 0.04587	 0.08617	 0.04801	 0.08159	 0.01634	 0.05553	 0.03327	 0.23315	 0.04957	 0.03221	 0.10221	 0.20519	 0.11787	 0.10863	 0.05397	 0.28064	 0.14940	 0.33633	 0.13421	NULL
     4	 0.08353	 0.05805	 0.10750	 0.08982	 0.16702	 0.18069	 0.18366	 0.04678	 0.01577	 0.05502	 0.05468	 0.04415	 0.03193	 0.02539	 0.06904	 0.01056	 0.12670	 0.04521	 0.08014	 0.04643	 0.07284	 0.01552	 0.03808	 0.03947	 0.21662	 0.05577	 0.03221	 0.10221	 0.19558	 0.09969	 0.10863	 0.05397	 0.29243	 0.15393	 0.33633	 0.13421	NULL
     5	 0.11167	 0.04749	 0.13599	 0.07974	 0.16702	 0.18069	 0.18366	 0.04678	 0.00261	 0.05441	 0.03447	 0.04248	 0.02944	 0.02303	 0.06323	 0.00935	 0.11547	 0.04261	 0.06980	 0.04425	 0.06162	 0.01159	 0.03046	 0.03155	 0.18357	 0.06818	 0.03221	 0.10221	 0.19558	 0.09969	 0.10863	 0.05397	 0.30933	 0.16744	 0.27754	 0.42540	NULL
     6	 0.09952	 0.06486	 0.11884	 0.10415	 0.17543	 0.19506	 0.20178	 0.04037	 0.00788	 0.04687	 0.03447	 0.04248	 0.02870	 0.02110	 0.05952	 0.00990	 0.10989	 0.04130	 0.06656	 0.04379	 0.05098	 0.01345	 0.03046	 0.03155	 0.18357	 0.06818	 0.03221	 0.10221	 0.19558	 0.09969	 0.10863	 0.05397	 0.31593	 0.17406	 0.27754	 0.42540	NULL
     7	 0.12770	 0.05428	 0.11884	 0.10415	 0.18384	 0.20947	 0.22274	 0.01054	-0.00527	 0.04626	 0.00562	 0.05331	 0.02519	 0.02023	 0.05743	 0.00814	 0.10093	 0.03922	 0.05799	 0.04417	 0.04851	 0.01035	 0.03046	 0.03155	 0.19970	 0.04492	 0.03221	 0.10221	 0.17515	 0.12914	 0.12664	 0.04742	 0.33630	 0.18255	 0.27754	 0.42540	NULL
     8	 0.12770	 0.05428	 0.11884	 0.10415	 0.18384	 0.20947	 0.22274	 0.01054	-0.00527	 0.04626	 0.00562	 0.05331	 0.02341	 0.01979	 0.05599	 0.00782	 0.09822	 0.03753	 0.05267	 0.04501	 0.04415	 0.00993	 0.03536	 0.02451	 0.19970	 0.04492	-0.01468	 0.11928	 0.17515	 0.12914	 0.12664	 0.04742	 0.33956	 0.18862	 0.07915	 0.50349	NULL
     9	 0.12770	 0.05428	 0.09035	 0.11423	 0.20893	 0.20005	 0.20178	 0.04037	-0.02366	 0.05316	-0.02323	 0.06414	 0.01708	 0.01996	 0.05244	 0.00576	 0.08977	 0.03659	 0.04137	 0.04424	 0.03977	 0.00952	 0.02284	 0.02365	 0.19929	 0.02789	-0.01468	 0.11928	 0.19558	 0.09969	 0.12981	 0.06192	 0.34805	 0.19262	 0.07915	 0.50349	NULL
    10	 0.12770	 0.05428	 0.09035	 0.11423	 0.20893	 0.20005	 0.20178	 0.04037	-0.01840	 0.04564	-0.02323	 0.06414	 0.01075	 0.02015	 0.04727	 0.00601	 0.08353	 0.03620	 0.03587	 0.04193	 0.03731	 0.00641	 0.00540	 0.02984	 0.16631	 0.04027	-0.00727	 0.05952	 0.16559	 0.11094	 0.12981	 0.06192	 0.35653	 0.19116	-0.11875	 0.58138	NULL
    11	 0.13984	 0.03691	 0.10750	 0.08982	 0.20049	 0.18566	 0.18653	 0.02334	-0.01840	 0.04564	-0.01455	 0.05162	 0.00018	 0.01751	 0.03346	 0.00439	 0.06551	 0.03408	 0.01838	 0.03645	 0.01987	 0.00476	-0.00220	 0.02194	 0.13260	 0.01861	-0.00727	 0.05952	 0.15602	 0.09278	 0.12981	 0.06192	 0.36502	 0.19516	-0.11875	 0.58138	NULL
    12	 0.11167	 0.04749	 0.07904	 0.09988	 0.20049	 0.18566	 0.16845	 0.02974	-0.01840	 0.04564	-0.03467	 0.04992	-0.00687	 0.01576	 0.02540	 0.00403	 0.05305	 0.03328	 0.00906	 0.03286	 0.01304	 0.00124	-0.01961	 0.02812	 0.11578	 0.00781	-0.05401	 0.07653	 0.17639	 0.06341	 0.12981	 0.06192	 0.36668	 0.19816	-0.11875	 0.58138	NULL
    13	 0.11167	 0.04749	 0.07904	 0.09988	 0.20049	 0.18566	 0.15038	 0.03613	-0.03153	 0.04503	-0.05477	 0.04823	-0.02484	 0.01483	 0.00501	 0.00236	 0.02394	 0.02853	-0.01547	 0.02565	-0.01310	-0.00124	-0.04458	 0.02639	 0.06578	-0.00762	-0.00002	 0.00003	 0.16678	 0.04534	 0.12981	 0.06192	 0.37677	 0.20523	 0.07915	 0.50349	NULL
    14	 0.11167	 0.04749	 0.07904	 0.09988	 0.20049	 0.18566	 0.13232	 0.04252	-0.03153	 0.04503	-0.07486	 0.04654	-0.03363	 0.01263	-0.00669	 0.00252	 0.00661	 0.02552	-0.02955	 0.02216	-0.02424	-0.00518	-0.05706	 0.02553	 0.03267	-0.01225	-0.00002	 0.00003	 0.13688	 0.05656	 0.11177	 0.06848	 0.38003	 0.21129	 0.07915	 0.50349	NULL
    15	 0.09952	 0.06486	 0.09616	 0.07550	 0.18384	 0.20947	 0.13520	 0.01912	-0.05776	 0.04379	-0.09492	 0.04483	-0.04946	 0.00870	-0.02705	 0.00084	-0.03307	 0.01934	-0.06027	 0.01718	-0.05276	-0.01076	-0.06464	 0.01764	-0.01670	-0.01076	-0.04669	 0.01703	 0.12732	 0.03849	 0.09376	 0.07504	 0.39009	 0.22389	-0.11875	 0.58138	NULL
    16	 0.09952	 0.06486	 0.09616	 0.07550	 0.18384	 0.20947	 0.11716	 0.02550	-0.07085	 0.04317	-0.11496	 0.04313	-0.05823	 0.00651	-0.03796	-0.00015	-0.05371	 0.01556	-0.07590	 0.01426	-0.07013	-0.01242	-0.07711	 0.01679	-0.03336	-0.02153	-0.09327	 0.03398	 0.09747	 0.04970	 0.09376	 0.07504	 0.39840	 0.23354	-0.11875	 0.58138	NULL
    17	 0.12770	 0.05428	 0.09616	 0.07550	 0.19225	 0.22389	 0.09914	 0.03188	-0.07869	 0.03504	-0.14362	 0.05388	-0.07962	 0.00467	-0.05525	-0.00382	-0.09594	 0.00769	-0.10810	 0.00983	-0.10479	-0.01574	-0.08466	 0.00890	-0.06663	-0.04303	-0.13978	 0.05092	 0.06765	 0.06089	 0.07576	 0.08159	 0.42017	 0.25628	-0.11875	 0.58138	NULL
    18	 0.12770	 0.05428	 0.09616	 0.07550	 0.20067	 0.23833	 0.08111	 0.03825	-0.09177	 0.03441	-0.16360	 0.05217	-0.08839	 0.00248	-0.06615	-0.00480	-0.11756	 0.00362	-0.12416	 0.00760	-0.11587	-0.01968	-0.09711	 0.00804	-0.09948	-0.04766	-0.18623	 0.06783	 0.03787	 0.07207	 0.07576	 0.08159	 0.43697	 0.26993	-0.11875	 0.58138	NULL
    19	 0.11553	 0.07168	 0.10750	 0.08982	 0.21750	 0.26728	 0.06312	 0.04461	-0.11789	 0.03316	-0.20350	 0.04872	-0.11076	 0.00212	-0.08563	-0.00764	-0.16073	-0.00451	-0.15472	 0.00261	-0.14426	-0.02526	-0.14415	 0.01947	-0.13259	-0.06910	-0.23260	 0.08471	 0.03787	 0.07207	 0.07576	 0.08159	 0.48786	 0.29411	 0.07915	 0.50349	NULL
    20	 0.14373	 0.06110	 0.10750	 0.08982	 0.23433	 0.29631	 0.06312	 0.04461	-0.14922	 0.03940	-0.22342	 0.04699	-0.12056	 0.00143	-0.09728	-0.00748	-0.18338	-0.00882	-0.17179	 0.00023	-0.15720	-0.02651	-0.15655	 0.01859	-0.14912	-0.07981	-0.17882	 0.00852	 0.02840	 0.05400	 0.07887	 0.09613	 0.51668	 0.30678	-0.17959	 0.87501	NULL
    21	 0.15980	 0.06790	 0.10167	 0.12859	 0.25118	 0.32542	 0.04513	 0.05098	-0.17527	 0.03813	-0.26319	 0.04353	-0.14013	 0.00002	-0.11977	-0.00833	-0.23124	-0.01915	-0.20593	-0.00451	-0.18928	-0.02675	-0.18135	 0.01685	-0.21410	-0.07230	-0.22511	 0.02537	-0.00132	 0.06515	 0.07887	 0.09613	 0.56776	 0.32542	-0.17959	 0.87501	NULL
    22	 0.15980	 0.06790	 0.10167	 0.12859	 0.25118	 0.32542	 0.04803	 0.02760	-0.20653	 0.04435	-0.28303	 0.04180	-0.14990	-0.00068	-0.13282	-0.00850	-0.25773	-0.02335	-0.22250	-0.00757	-0.20032	-0.03067	-0.19860	 0.02297	-0.24665	-0.07694	-0.27133	 0.04219	-0.01077	 0.04711	 0.07887	 0.09613	 0.57951	 0.33559	-0.17959	 0.87501	NULL
    23	 0.17587	 0.07471	 0.07318	 0.13867	 0.25960	 0.34001	 0.01502	 0.01696	-0.23250	 0.04306	-0.29425	 0.02766	-0.17119	-0.00252	-0.15290	-0.01278	-0.30274	-0.03199	-0.25065	-0.01074	-0.23419	-0.02826	-0.20609	 0.01509	-0.27945	-0.09831	-0.31747	 0.05899	-0.04983	 0.04021	 0.07576	 0.08159	 0.59476	 0.34620	-0.11875	 0.58138	NULL
    24	 0.16367	 0.09216	 0.07318	 0.13867	 0.25960	 0.34001	 0.01502	 0.01696	-0.26889	 0.05672	-0.32267	 0.03832	-0.17920	-0.00280	-0.16149	-0.01461	-0.31365	-0.03460	-0.25480	-0.00979	-0.24090	-0.03177	-0.22334	 0.02122	-0.29552	-0.09227	-0.30998	-0.00014	-0.07943	 0.05133	 0.05776	 0.08815	 0.59646	 0.34923	-0.11875	 0.58138	NULL
    25	 0.15146	 0.10961	 0.08449	 0.15306	 0.25960	 0.34001	 0.03296	 0.01062	-0.28185	 0.05608	-0.35104	 0.04898	-0.17920	-0.00280	-0.15690	-0.01886	-0.29493	-0.03221	-0.22827	 0.00237	-0.24467	-0.02643	-0.22334	 0.02122	-0.24665	-0.07694	-0.30998	-0.00014	-0.01077	 0.04711	 0.05776	 0.08815	 0.59454	 0.35738	-0.11875	 0.58138	NULL
    26	 0.15146	 0.10961	 0.11301	 0.14297	 0.28488	 0.33052	 0.06602	 0.02124	-0.26889	 0.05672	-0.33127	 0.05072	-0.16874	-0.00017	-0.14098	-0.01809	-0.25850	-0.02769	-0.19486	 0.01318	-0.22936	-0.02209	-0.21097	 0.02209	-0.16530	-0.07373	-0.36355	 0.07577	 0.00812	 0.08324	 0.07576	 0.08159	 0.58762	 0.36197	-0.11875	 0.58138	NULL
    27	 0.17973	 0.09900	 0.13570	 0.17179	 0.27645	 0.36924	 0.15038	 0.03613	-0.23522	 0.06616	-0.27181	 0.05596	-0.12678	 0.01032	-0.08247	-0.01220	-0.14296	-0.00965	-0.10301	 0.04137	-0.15559	-0.00919	-0.16632	 0.03262	 0.03267	-0.01225	-0.22511	 0.02537	 0.14516	 0.14040	 0.07887	 0.09613	 0.59101	 0.36246	-0.17959	 0.87501	NULL
    28	 0.16752	 0.11647	 0.14705	 0.18623	 0.31022	 0.37438	 0.18080	 0.07024	-0.19623	 0.06811	-0.24068	 0.07189	-0.09703	 0.01778	-0.04488	-0.00686	-0.07476	 0.00329	-0.05263	 0.05530	-0.11182	 0.00077	-0.14640	 0.04140	 0.11652	 0.04180	-0.18623	 0.06783	 0.22440	 0.15433	 0.09689	 0.08957	 0.59624	 0.36040	-0.17959	 0.87501	NULL
    29	 0.22417	 0.09520	 0.21578	 0.18041	 0.34406	 0.37952	 0.28398	 0.07873	-0.12328	 0.07947	-0.13227	 0.06809	-0.03629	 0.03120	 0.02753	 0.00577	 0.05275	 0.03005	 0.03581	 0.07602	-0.01578	 0.01573	-0.07176	 0.04665	 0.30110	 0.09308	-0.00727	 0.05952	 0.35366	 0.19354	 0.13612	 0.09098	 0.61166	 0.35991	 0.01880	 0.79692	NULL
    30	 0.22417	 0.09520	 0.22720	 0.19486	 0.35253	 0.39420	 0.31756	 0.08940	-0.08405	 0.08138	-0.09219	 0.07152	-0.00884	 0.03630	 0.05651	 0.01188	 0.10591	 0.04140	 0.06840	 0.08206	 0.02154	 0.02217	-0.03432	 0.04926	 0.35224	 0.12587	 0.03953	 0.04248	 0.39374	 0.20051	 0.15735	 0.09895	 0.62198	 0.36137	 0.01880	 0.79692	NULL
    31	 0.24031	 0.10204	 0.25595	 0.18470	 0.36946	 0.42363	 0.35123	 0.10008	-0.03688	 0.09146	-0.03191	 0.07666	 0.03031	 0.04252	 0.09570	 0.02011	 0.17529	 0.05965	 0.10540	 0.08867	 0.07643	 0.03026	 0.01572	 0.05272	 0.40316	 0.14151	 0.07917	 0.08511	 0.43389	 0.20749	 0.19670	 0.10035	 0.65608	 0.37200	 0.27754	 0.42540	NULL
    32	 0.24031	 0.10204	 0.26743	 0.19916	 0.39496	 0.41406	 0.36950	 0.09361	-0.01059	 0.09271	-0.01175	 0.07836	 0.04089	 0.04516	 0.10734	 0.02255	 0.19781	 0.06487	 0.11409	 0.08986	 0.09393	 0.03192	 0.02825	 0.05358	 0.40316	 0.14151	 0.07917	 0.08511	 0.43389	 0.20749	 0.23296	 0.08715	 0.67128	 0.38268	 0.27754	 0.42540	NULL
    33	 0.25647	 0.10888	 0.27888	 0.21366	 0.41196	 0.44355	 0.38496	 0.11075	 0.01572	 0.09397	 0.02859	 0.08177	 0.05893	 0.04610	 0.11883	 0.02761	 0.21968	 0.07101	 0.12269	 0.08947	 0.10707	 0.03317	 0.04841	 0.06238	 0.41946	 0.11800	 0.12622	 0.06799	 0.46438	 0.19605	 0.25429	 0.09512	 0.71902	 0.40097	 0.27754	 0.42540	NULL
    34	 0.25647	 0.10888	 0.27888	 0.21366	 0.42045	 0.45833	 0.38496	 0.11075	 0.02888	 0.09461	 0.02859	 0.08177	 0.06141	 0.04848	 0.12243	 0.02967	 0.22530	 0.07233	 0.12478	 0.08819	 0.11337	 0.03088	 0.04841	 0.06238	 0.43575	 0.09452	 0.18042	-0.00881	 0.46438	 0.19605	 0.25429	 0.09512	 0.73946	 0.41516	 0.27754	 0.42540	NULL
    35	 0.27263	 0.11572	 0.29037	 0.22816	 0.43745	 0.48795	 0.42159	 0.09780	 0.05525	 0.09585	 0.04880	 0.08347	 0.06746	 0.05172	 0.13115	 0.03151	 0.22920	 0.07426	 0.12515	 0.08593	 0.10898	 0.03046	 0.04348	 0.06945	 0.41904	 0.10080	 0.12622	 0.06799	 0.46438	 0.19605	 0.27566	 0.10310	 0.78547	 0.44151	 0.01880	 0.79692	NULL
    36	 0.26037	 0.13325	 0.27299	 0.25290	 0.46307	 0.47834	 0.40042	 0.12793	 0.05525	 0.09585	 0.04009	 0.09603	 0.06921	 0.05217	 0.13261	 0.03181	 0.22857	 0.07516	 0.12397	 0.08421	 0.10461	 0.03004	 0.04348	 0.06945	 0.40231	 0.10707	 0.12622	 0.06799	 0.43389	 0.20749	 0.27566	 0.10310	 0.80921	 0.45632	 0.21758	 0.71869	NULL
    37	 0.28882	 0.12257	 0.30185	 0.24269	 0.48013	 0.50802	 0.41876	 0.12145	 0.05525	 0.09585	 0.04009	 0.09603	 0.06816	 0.05367	 0.13406	 0.03211	 0.22516	 0.07439	 0.11774	 0.07948	 0.09584	 0.02922	 0.02602	 0.07565	 0.38520	 0.09615	 0.12622	 0.06799	 0.45457	 0.17768	 0.27566	 0.10310	 0.85679	 0.49148	 0.21758	 0.71869	NULL
    38	 0.28882	 0.12257	 0.30185	 0.24269	 0.51435	 0.51327	 0.41876	 0.12145	 0.05525	 0.09585	 0.04009	 0.09603	 0.06921	 0.05217	 0.13340	 0.03066	 0.22179	 0.07361	 0.11281	 0.07802	 0.08517	 0.03109	 0.02602	 0.07565	 0.38476	 0.07898	 0.07917	 0.08511	 0.42414	 0.18910	 0.29385	 0.09648	 0.88578	 0.50980	 0.21758	 0.71869	NULL
    39	 0.30502	 0.12943	 0.28445	 0.26746	 0.54002	 0.55800	 0.41590	 0.14514	 0.05525	 0.09585	 0.04009	 0.09603	 0.06568	 0.05129	 0.12904	 0.02974	 0.21164	 0.07124	 0.10135	 0.07568	 0.07015	 0.03254	 0.01841	 0.06771	 0.35100	 0.07435	 0.07917	 0.08511	 0.42414	 0.18910	 0.31205	 0.08985	 0.95251	 0.54495	 0.21758	 0.71869	NULL
    40	 0.29274	 0.14700	 0.28445	 0.26746	 0.54857	 0.57297	 0.43426	 0.13865	 0.03678	 0.10279	 0.04009	 0.09603	 0.06568	 0.05129	 0.12760	 0.02942	 0.20663	 0.06905	 0.09702	 0.07509	 0.06768	 0.02943	 0.01841	 0.06771	 0.33436	 0.08060	 0.13338	 0.00832	 0.42414	 0.18910	 0.29707	 0.11108	 0.98843	 0.56434	 0.21758	 0.71869	NULL
    41	 0.33749	 0.14316	 0.27850	 0.30686	 0.58282	 0.63302	 0.41304	 0.16886	 0.04207	 0.09523	 0.01118	 0.10688	 0.06390	 0.05085	 0.12614	 0.02912	 0.19890	 0.06515	 0.09001	 0.07490	 0.06331	 0.02901	 0.02333	 0.06064	 0.33436	 0.08060	 0.13338	 0.00832	 0.45457	 0.17768	 0.31850	 0.11907	 1.06046	 0.60313	 0.21758	 0.71869	NULL
    42	 0.35374	 0.15004	 0.30742	 0.29663	 0.61731	 0.63836	 0.43141	 0.16236	 0.04207	 0.09523	 0.01989	 0.09432	 0.06285	 0.05235	 0.12614	 0.02912	 0.19617	 0.06346	 0.08831	 0.07391	 0.06522	 0.02631	 0.02333	 0.06064	 0.31771	 0.08685	 0.13338	 0.00832	 0.45457	 0.17768	 0.30349	 0.14034	 1.09483	 0.61948	 0.21758	 0.71869	NULL
    43	 0.35769	 0.17454	 0.33041	 0.32588	 0.64308	 0.68368	 0.43141	 0.16236	 0.04207	 0.09523	 0.01989	 0.09432	 0.05723	 0.05446	 0.12693	 0.02798	 0.19181	 0.06035	 0.08231	 0.07231	 0.06275	 0.02320	 0.02333	 0.06064	 0.30110	 0.09308	 0.07917	 0.08511	 0.43389	 0.20749	 0.32173	 0.13370	 1.14790	 0.65282	 0.21758	 0.71869	NULL
    44	 0.38630	 0.16380	 0.33041	 0.32588	 0.66910	 0.67391	 0.44979	 0.15586	 0.04735	 0.08767	 0.01989	 0.09432	 0.05545	 0.05403	 0.12322	 0.02852	 0.18844	 0.05956	 0.07848	 0.07099	 0.05838	 0.02279	 0.02333	 0.06064	 0.28447	 0.09933	 0.07917	 0.08511	 0.40346	 0.21891	 0.32173	 0.13370	 1.17376	 0.66507	 0.21758	 0.71869	NULL
    45	 0.40260	 0.17069	 0.34191	 0.34054	 0.68633	 0.70422	 0.47102	 0.12564	 0.04735	 0.08767	-0.00030	 0.09262	 0.04839	 0.05226	 0.11367	 0.02784	 0.17657	 0.05784	 0.06585	 0.06696	 0.04527	 0.02154	 0.00588	 0.06684	 0.26748	 0.08842	 0.02475	 0.16222	 0.40346	 0.21891	 0.30669	 0.15500	 1.21847	 0.68864	 0.41685	 0.64026	NULL
    46	 0.40260	 0.17069	 0.34191	 0.34054	 0.66886	 0.72920	 0.47102	 0.12564	 0.02888	 0.09461	-0.00030	 0.09262	 0.04203	 0.05244	 0.10481	 0.02861	 0.16872	 0.05602	 0.05819	 0.06434	 0.03844	 0.01802	-0.01156	 0.07303	 0.25051	 0.07752	-0.02222	 0.17932	 0.37306	 0.23033	 0.30669	 0.15500	 1.23906	 0.70301	 0.41685	 0.64026	NULL
    47	 0.39025	 0.18834	 0.32438	 0.36549	 0.68605	 0.75968	 0.45263	 0.13215	 0.02888	 0.09461	-0.02045	 0.09090	 0.02965	 0.04938	 0.08724	 0.02754	 0.14560	 0.05171	 0.03742	 0.05841	 0.01662	 0.01595	-0.02408	 0.07217	 0.20047	 0.07906	-0.01468	 0.11928	 0.36335	 0.21192	 0.30669	 0.15500	 1.28897	 0.73025	 0.41685	 0.64026	NULL
    48	 0.41893	 0.17758	 0.32438	 0.36549	 0.66851	 0.78475	 0.43426	 0.13865	 0.01572	 0.09397	-0.04929	 0.10172	 0.01980	 0.04867	 0.07771	 0.02687	 0.13152	 0.04947	 0.02493	 0.05592	 0.00164	 0.01740	-0.03656	 0.07129	 0.18357	 0.06818	-0.01468	 0.11928	 0.33301	 0.22331	 0.30669	 0.15500	 1.31660	 0.74566	 0.41685	 0.64026	NULL
    49	 0.39419	 0.21294	 0.33589	 0.38019	 0.71183	 0.80555	 0.41590	 0.14514	 0.00255	 0.09334	-0.06940	 0.10000	 0.00287	 0.04621	 0.05947	 0.02436	 0.09953	 0.04307	-0.00166	 0.04994	-0.02449	 0.01490	-0.04414	 0.06335	 0.14982	 0.04646	-0.00727	 0.05952	 0.32334	 0.20492	 0.30669	 0.15500	 1.36813	 0.78172	 0.15658	 1.01398	NULL
    50	 0.42290	 0.20217	 0.36495	 0.36991	 0.72044	 0.82088	 0.39756	 0.15163	-0.01587	 0.10026	-0.08947	 0.09827	-0.00419	 0.04445	 0.04855	 0.02336	 0.08275	 0.03914	-0.01628	 0.04717	-0.02938	 0.00869	-0.06155	 0.06954	 0.11652	 0.04180	-0.05401	 0.07653	 0.31367	 0.18657	 0.32173	 0.13370	 1.39746	 0.80025	 0.21758	 0.71869	NULL
    51	 0.43923	 0.20909	 0.34738	 0.39491	 0.74624	 0.86703	 0.37922	 0.15811	-0.04215	 0.09900	-0.10954	 0.09654	-0.02284	 0.04155	 0.03033	 0.02086	 0.04525	 0.03145	-0.04495	 0.04089	-0.05356	 0.00350	-0.08648	 0.06778	 0.06651	 0.02630	-0.04669	 0.01703	 0.30401	 0.16824	 0.30669	 0.15500	 1.44919	 0.83633	 0.21758	 0.71869	NULL
    52	 0.42684	 0.22681	 0.37648	 0.38462	 0.75486	 0.88246	 0.36090	 0.16459	-0.05527	 0.09836	-0.12958	 0.09481	-0.02989	 0.03980	 0.02086	 0.02016	 0.02394	 0.02853	-0.05955	 0.03812	-0.06468	-0.00044	-0.07666	 0.05369	 0.04977	 0.01547	-0.09327	 0.03398	 0.30401	 0.16824	 0.30669	 0.15500	 1.47681	 0.85183	 0.21758	 0.71869	NULL
    53	 0.44321	 0.23375	 0.35889	 0.40966	 0.78066	 0.92890	 0.32430	 0.17754	-0.06311	 0.09019	-0.14960	 0.09307	-0.04676	 0.03734	 0.00271	 0.01763	-0.01390	 0.01967	-0.08707	 0.03199	-0.09314	-0.00603	-0.11893	 0.05810	-0.00003	 0.00003	-0.08600	-0.02527	 0.28467	 0.13170	 0.28845	 0.16164	 1.51472	 0.88592	 0.27754	 0.42540	NULL
    54	 0.44321	 0.23375	 0.35889	 0.40966	 0.78928	 0.94441	 0.34550	 0.14736	-0.07620	 0.08954	-0.16959	 0.09133	-0.05555	 0.03514	-0.00598	 0.01581	-0.03343	 0.01615	-0.10054	 0.02936	-0.11237	-0.00501	-0.12646	 0.05018	-0.01670	-0.01076	-0.13245	-0.00836	 0.25451	 0.14302	 0.30349	 0.14034	 1.52843	 0.89935	 0.27754	 0.42540	NULL
    55	 0.45957	 0.24070	 0.37040	 0.42444	 0.79788	 0.95997	 0.30893	 0.16029	-0.09713	 0.08074	-0.18089	 0.07711	-0.07344	 0.03416	-0.02634	 0.01413	-0.07175	 0.00817	-0.12790	 0.02479	-0.14264	-0.00794	-0.13887	 0.04930	-0.05001	-0.03228	-0.12525	-0.06739	 0.24488	 0.12479	 0.28526	 0.14697	 1.54726	 0.92216	 0.27754	 0.42540	NULL
    56	 0.45957	 0.24070	 0.37040	 0.42444	 0.80650	 0.97554	 0.31184	 0.13662	-0.12853	 0.08699	-0.22943	 0.08610	-0.08326	 0.03347	-0.03645	 0.01200	-0.09056	 0.00374	-0.14289	 0.02271	-0.15559	-0.00919	-0.15129	 0.04842	-0.08255	-0.02007	-0.17153	-0.05054	 0.23524	 0.10659	 0.28207	 0.13233	 1.55765	 0.92941	 0.27754	 0.42540	NULL
    57	 0.44715	 0.25846	 0.37040	 0.42444	 0.80650	 0.97554	 0.29357	 0.14307	-0.14938	 0.07819	-0.26920	 0.08259	-0.10289	 0.03206	-0.05821	 0.00999	-0.13318	-0.00527	-0.17439	 0.01911	-0.18768	-0.00945	-0.18099	 0.05369	-0.13193	-0.03548	-0.21776	-0.03371	 0.19558	 0.09969	 0.26387	 0.13895	 1.58018	 0.94130	 0.27754	 0.42540	NULL
    58	 0.44715	 0.25846	 0.34127	 0.43474	 0.83295	 0.96561	 0.27533	 0.14953	-0.16767	 0.08506	-0.28906	 0.08084	-0.10990	 0.03029	-0.06909	 0.00899	-0.15522	-0.01048	-0.19041	 0.01687	-0.20061	-0.01071	-0.17610	 0.04667	-0.14845	-0.04623	-0.21776	-0.03371	 0.21598	 0.07027	 0.26387	 0.13895	 1.59058	 0.94854	 0.27754	 0.42540	NULL
    59	 0.44715	 0.25846	 0.34127	 0.43474	 0.81510	 0.99114	 0.23889	 0.16242	-0.18070	 0.08440	-0.30888	 0.07907	-0.12842	 0.02738	-0.09003	 0.00585	-0.20051	-0.01911	-0.22018	 0.01425	-0.22454	-0.01590	-0.20089	 0.04490	-0.18147	-0.06766	-0.26390	-0.01691	 0.17639	 0.06341	 0.24568	 0.14558	 1.61315	 0.96046	 0.01880	 0.79692	NULL
    60	 0.44715	 0.25846	 0.34127	 0.43474	 0.81510	 0.99114	 0.23889	 0.16242	-0.19372	 0.08375	-0.32869	 0.07732	-0.13648	 0.02711	-0.09724	 0.00434	-0.21653	-0.02186	-0.22862	 0.01462	-0.23743	-0.01716	-0.21813	 0.05103	-0.18181	-0.08442	-0.26390	-0.01691	 0.17639	 0.06341	 0.24568	 0.14558	 1.62355	 0.96771	 0.01880	 0.79692	NULL
    61	 0.47595	 0.24765	 0.32364	 0.45983	 0.84160	 0.98119	 0.25710	 0.15598	-0.19372	 0.08375	-0.33731	 0.08975	-0.13924	 0.02815	-0.09930	 0.00257	-0.21431	-0.02134	-0.21381	 0.02360	-0.24361	-0.01491	-0.21813	 0.05103	-0.14879	-0.06302	-0.26390	-0.01691	 0.19558	 0.09969	 0.24568	 0.14558	 1.64962	 0.98017	 0.01880	 0.79692	NULL
    62	 0.47595	 0.24765	 0.35277	 0.44953	 0.82372	 1.00675	 0.29357	 0.14307	-0.19898	 0.09127	-0.30888	 0.07907	-0.13330	 0.03140	-0.08766	 0.00243	-0.18763	-0.01917	-0.18844	 0.03254	-0.22643	-0.01323	-0.20577	 0.05191	-0.11539	-0.02472	-0.21776	-0.03371	 0.24488	 0.12479	 0.26387	 0.13895	 1.65823	 0.99000	 0.01880	 0.79692	NULL
    63	 0.50878	 0.26156	 0.38731	 0.49405	 0.88542	 1.00247	 0.37922	 0.15811	-0.16514	 0.10073	-0.28649	 0.10752	-0.09547	 0.03914	-0.03550	 0.00825	-0.09277	-0.00408	-0.10796	 0.05691	-0.16747	 0.00110	-0.17350	 0.06160	 0.06651	 0.02630	-0.17882	 0.00852	 0.35366	 0.19354	 0.27023	 0.16827	 1.68422	 1.00816	 0.01880	 0.79692	NULL
    64	 0.52521	 0.26854	 0.42809	 0.49859	 0.87613	 1.04379	 0.41014	 0.19263	-0.13906	 0.10204	-0.24674	 0.11106	-0.06636	 0.04470	 0.00154	 0.01214	-0.03107	 0.00732	-0.06031	 0.06972	-0.12373	 0.01108	-0.15357	 0.07041	 0.16668	 0.05731	-0.13245	-0.00836	 0.41319	 0.23735	 0.30669	 0.15500	 1.70514	 1.01699	 0.01880	 0.79692	NULL
    65	 0.55814	 0.28249	 0.49221	 0.53292	 0.92873	 1.08097	 0.51492	 0.20117	-0.07893	 0.11280	-0.14695	 0.11984	-0.00444	 0.05666	 0.07944	 0.02196	 0.09403	 0.03238	 0.02655	 0.09105	-0.03589	 0.03106	-0.10121	 0.08894	 0.33517	 0.11493	-0.04669	 0.01703	 0.51338	 0.28841	 0.33133	 0.17773	 1.75040	 1.04088	 0.01880	 0.79692	NULL
    66	 0.57463	 0.28947	 0.48600	 0.57324	 0.97283	 1.10250	 0.54902	 0.21195	-0.03958	 0.11473	-0.10686	 0.12334	 0.02308	 0.06177	 0.10996	 0.02838	 0.14733	 0.04371	 0.06079	 0.09810	-0.00051	 0.04022	-0.08613	 0.10484	 0.38645	 0.14779	-0.00727	 0.05952	 0.55387	 0.29546	 0.36791	 0.16441	 1.78006	 1.05385	 0.01880	 0.79692	NULL
    67	 0.62017	 0.28557	 0.52708	 0.57781	 0.98075	 1.17598	 0.60175	 0.21618	 0.00773	 0.12485	-0.04657	 0.12856	 0.06195	 0.07146	 0.15368	 0.03754	 0.22318	 0.06234	 0.10637	 0.10437	 0.05870	 0.04877	-0.04604	 0.12255	 0.45466	 0.17448	 0.08641	 0.02541	 0.60435	 0.32111	 0.40777	 0.16578	 1.84463	 1.08351	 0.21758	 0.71869	NULL
    68	 0.63673	 0.29254	 0.50921	 0.60325	 1.01629	 1.18180	 0.62031	 0.20962	 0.03409	 0.12611	-0.02644	 0.13030	 0.07436	 0.07454	 0.16682	 0.04028	 0.24507	 0.06848	 0.11931	 0.10458	 0.07620	 0.05043	-0.02102	 0.12433	 0.47144	 0.16818	 0.03221	 0.10221	 0.60435	 0.32111	 0.41101	 0.18049	 1.87421	 1.10228	 0.21758	 0.71869	NULL
    69	 0.62420	 0.31046	 0.53871	 0.59282	 1.01543	 1.23982	 0.63889	 0.20305	 0.05518	 0.13496	 0.01391	 0.13377	 0.09240	 0.07551	 0.17690	 0.04504	 0.26818	 0.07486	 0.13060	 0.10378	 0.09562	 0.04939	 0.00403	 0.12610	 0.47144	 0.16818	 0.07917	 0.08511	 0.63518	 0.30954	 0.44770	 0.16713	 1.93365	 1.13405	 0.41685	 0.64026	NULL
    70	 0.65330	 0.29954	 0.52082	 0.61830	 1.04238	 1.22970	 0.61746	 0.23354	 0.06840	 0.13559	 0.01391	 0.13377	 0.09596	 0.07638	 0.17904	 0.04679	 0.27382	 0.07617	 0.13216	 0.10323	 0.10000	 0.04981	 0.01657	 0.12699	 0.47144	 0.16818	 0.07917	 0.08511	 0.63518	 0.30954	 0.46607	 0.16045	 1.95808	 1.14918	 0.61656	 0.56166	NULL
    71	 0.65330	 0.29954	 0.52082	 0.61830	 1.05109	 1.24571	 0.63604	 0.22697	 0.08161	 0.13622	 0.00518	 0.14636	 0.10408	 0.07666	 0.18263	 0.04887	 0.27656	 0.07787	 0.13258	 0.10094	 0.09562	 0.04939	 0.03407	 0.12077	 0.47102	 0.15088	 0.02475	 0.16222	 0.60435	 0.32111	 0.46934	 0.17517	 1.98768	 1.17371	 0.61656	 0.56166	NULL
    72	 0.65330	 0.29954	 0.52082	 0.61830	 1.03278	 1.27188	 0.61459	 0.25751	 0.10015	 0.12927	-0.02373	 0.15721	 0.10691	 0.07560	 0.18263	 0.04887	 0.27721	 0.07696	 0.12980	 0.09978	 0.09753	 0.04669	 0.03901	 0.11368	 0.45425	 0.15718	 0.02475	 0.16222	 0.60435	 0.32111	 0.46934	 0.17517	 1.99635	 1.18366	 0.81670	 0.48288	NULL
    73	 0.64077	 0.31746	 0.52082	 0.61830	 1.05978	 1.26175	 0.63318	 0.25093	 0.10015	 0.12927	-0.02373	 0.15721	 0.10515	 0.07514	 0.18117	 0.04857	 0.27155	 0.07565	 0.12101	 0.09703	 0.09068	 0.04315	 0.02645	 0.11280	 0.43664	 0.12895	 0.07917	 0.08511	 0.59448	 0.30249	 0.48773	 0.16848	 2.01375	 1.19777	 0.81670	 0.48288	NULL
    74	 0.64077	 0.31746	 0.52082	 0.61830	 1.08680	 1.25160	 0.61170	 0.28152	 0.10015	 0.12927	 0.00518	 0.14636	 0.10441	 0.07321	 0.18049	 0.04711	 0.26591	 0.07434	 0.11655	 0.09486	 0.08193	 0.04232	 0.03138	 0.10572	 0.41990	 0.13523	 0.03221	 0.10221	 0.61537	 0.27237	 0.47259	 0.18992	 2.02603	 1.20250	 0.81670	 0.48288	NULL
    75	 0.64077	 0.31746	 0.52082	 0.61830	 1.09554	 1.26765	 0.61170	 0.28152	 0.10015	 0.12927	 0.01391	 0.13377	 0.10088	 0.07233	 0.17851	 0.04272	 0.25590	 0.06992	 0.10995	 0.09239	 0.08136	 0.03650	 0.01390	 0.11193	 0.40276	 0.12428	 0.03221	 0.10221	 0.58461	 0.28392	 0.47259	 0.18992	 2.04182	 1.21344	 0.81670	 0.48288	NULL
    76	 0.64077	 0.31746	 0.52082	 0.61830	 1.09554	 1.26765	 0.63031	 0.27493	 0.10015	 0.12927	 0.04287	 0.12289	 0.09806	 0.07339	 0.17784	 0.04128	 0.25152	 0.06680	 0.10715	 0.09126	 0.07699	 0.03608	 0.01390	 0.11193	 0.40231	 0.10707	 0.03221	 0.10221	 0.58461	 0.28392	 0.45421	 0.19661	 2.05410	 1.21817	 0.81670	 0.48288	NULL
    77	 0.66989	 0.30653	 0.53245	 0.63335	 1.10426	 1.28373	 0.63031	 0.27493	 0.10015	 0.12927	 0.04287	 0.12289	 0.09627	 0.07295	 0.17801	 0.03864	 0.24327	 0.06175	 0.10174	 0.09050	 0.07071	 0.03837	 0.00897	 0.11901	 0.40231	 0.10707	 0.02475	 0.16222	 0.55387	 0.29546	 0.47259	 0.18992	 2.07688	 1.23020	 0.81670	 0.48288	NULL
    78	 0.66989	 0.30653	 0.53245	 0.63335	 1.13136	 1.27356	 0.63031	 0.27493	 0.08161	 0.13622	 0.04287	 0.12289	 0.09627	 0.07295	 0.17880	 0.03750	 0.24117	 0.05916	 0.10006	 0.08949	 0.07071	 0.03837	 0.00897	 0.11901	 0.40231	 0.10707	 0.02475	 0.16222	 0.55387	 0.29546	 0.48773	 0.16848	 2.09270	 1.23541	 0.81670	 0.48288	NULL
    79	 0.68650	 0.31353	 0.51451	 0.65889	 1.14011	 1.28965	 0.67042	 0.23776	 0.08161	 0.13622	 0.04287	 0.12289	 0.09345	 0.07401	 0.17506	 0.03805	 0.23506	 0.05667	 0.09394	 0.08633	 0.06006	 0.04024	 0.00897	 0.11901	 0.38562	 0.11334	 0.02475	 0.16222	 0.58461	 0.28392	 0.50614	 0.16177	 2.12253	 1.25424	 0.81670	 0.48288	NULL
    80	 0.68650	 0.31353	 0.51451	 0.65889	 1.12171	 1.31597	 0.65179	 0.24435	 0.08692	 0.12863	 0.04287	 0.12289	 0.09168	 0.07356	 0.17361	 0.03773	 0.23228	 0.05501	 0.09109	 0.08360	 0.05569	 0.03982	 0.00897	 0.11901	 0.38520	 0.09615	 0.03221	 0.10221	 0.60547	 0.25383	 0.50614	 0.16177	 2.14549	 1.26053	 0.61656	 0.56166	NULL
    81	 0.67393	 0.33149	 0.54408	 0.64843	 1.13044	 1.33212	 0.63318	 0.25093	 0.08692	 0.12863	 0.02264	 0.12118	 0.08742	 0.07074	 0.16178	 0.03790	 0.21861	 0.05395	 0.07836	 0.07799	 0.03629	 0.04086	-0.00357	 0.11813	 0.35142	 0.09149	 0.03221	 0.10221	 0.57474	 0.26537	 0.50614	 0.16177	 2.18243	 1.27468	 0.61656	 0.56166	NULL
    82	 0.67393	 0.33149	 0.52612	 0.67400	 1.15762	 1.32191	 0.61459	 0.25751	 0.06840	 0.13559	-0.00627	 0.13204	 0.08314	 0.06792	 0.15517	 0.03783	 0.21074	 0.05211	 0.06960	 0.07522	 0.03384	 0.03773	-0.01608	 0.11724	 0.33436	 0.08060	-0.01468	 0.11928	 0.59557	 0.23533	 0.50614	 0.16177	 2.19647	 1.28257	 0.41685	 0.64026	NULL
    83	 0.70313	 0.32053	 0.54408	 0.64843	 1.15762	 1.32191	 0.59601	 0.26408	 0.05518	 0.13496	-0.02644	 0.13030	 0.06896	 0.06442	 0.13752	 0.03678	 0.18584	 0.04844	 0.04930	 0.06857	 0.01202	 0.03566	-0.02860	 0.11635	 0.28368	 0.06507	 0.03953	 0.04248	 0.55502	 0.22837	 0.50614	 0.16177	 2.21047	 1.29618	 0.41685	 0.64026	NULL
    84	 0.70313	 0.32053	 0.54408	 0.64843	 1.15762	 1.32191	 0.57743	 0.27065	 0.04198	 0.13433	-0.01772	 0.11773	 0.06013	 0.06220	 0.13021	 0.03527	 0.17298	 0.04442	 0.03575	 0.06592	 0.00520	 0.03213	-0.04110	 0.11546	 0.26668	 0.05420	-0.00727	 0.05952	 0.55502	 0.22837	 0.50614	 0.16177	 2.21926	 1.30036	 0.15658	 1.01398	NULL
    85	 0.70313	 0.32053	 0.54408	 0.64843	 1.15762	 1.32191	 0.58033	 0.24668	 0.01562	 0.13305	-0.06670	 0.12683	 0.04420	 0.05825	 0.11192	 0.03276	 0.13801	 0.03840	 0.00911	 0.05995	-0.02094	 0.02962	-0.06117	 0.10662	 0.20009	 0.06198	-0.05401	 0.07653	 0.51453	 0.22142	 0.49101	 0.18321	 2.23139	 1.31669	 0.15658	 1.01398	NULL
    86	 0.73234	 0.30957	 0.54408	 0.64843	 1.15762	 1.32191	 0.56178	 0.25324	 0.00244	 0.13241	-0.05800	 0.11427	 0.03432	 0.05755	 0.10320	 0.03092	 0.12009	 0.03423	-0.00599	 0.05786	-0.03209	 0.02567	-0.07365	 0.10573	 0.18318	 0.05112	-0.00002	 0.00003	 0.51453	 0.22142	 0.47259	 0.18992	 2.24193	 1.32403	 0.15658	 1.01398	NULL
    87	 0.71976	 0.32754	 0.52612	 0.67400	 1.16636	 1.33810	 0.56467	 0.22929	-0.02916	 0.13870	-0.06940	 0.10000	 0.01561	 0.05465	 0.08432	 0.02694	 0.08315	 0.02566	-0.03314	 0.05103	-0.06440	 0.02544	-0.09859	 0.10395	 0.13298	 0.03562	-0.04669	 0.01703	 0.47417	 0.21446	 0.47259	 0.18992	 2.27719	 1.34081	 0.41685	 0.64026	NULL
    88	 0.70718	 0.34554	 0.52612	 0.67400	 1.16636	 1.33810	 0.54616	 0.23584	-0.04229	 0.13805	-0.09816	 0.11080	 0.00960	 0.05139	 0.07558	 0.02512	 0.06591	 0.02059	-0.04772	 0.04825	-0.07553	 0.02149	-0.11104	 0.10305	 0.11615	 0.02478	-0.09327	 0.03398	 0.49487	 0.18460	 0.47259	 0.18992	 2.30024	 1.34707	 0.41685	 0.64026	NULL
    89	 0.72383	 0.35257	 0.53773	 0.68914	 1.15662	 1.38075	 0.54902	 0.21195	-0.05015	 0.12985	-0.10954	 0.09654	-0.00628	 0.04744	 0.05673	 0.02113	 0.02976	 0.01110	-0.07528	 0.04212	-0.10776	 0.02123	-0.12350	 0.10216	 0.06651	 0.02630	-0.13978	 0.05092	 0.45457	 0.17768	 0.46934	 0.17517	 2.33730	 1.36704	 0.41685	 0.64026	NULL
    90	 0.71122	 0.37060	 0.53773	 0.68914	 1.16534	 1.39701	 0.53052	 0.21850	-0.06327	 0.12920	-0.13826	 0.10732	-0.01615	 0.04675	 0.04801	 0.01932	 0.01192	 0.00695	-0.08983	 0.03933	-0.12076	 0.01998	-0.13595	 0.10128	 0.06616	 0.00932	-0.18623	 0.06783	 0.45457	 0.17768	 0.46934	 0.17517	 2.35488	 1.37550	 0.41685	 0.64026	NULL
    91	 0.72787	 0.37765	 0.53773	 0.68914	 1.20138	 1.40304	 0.51203	 0.22504	-0.07109	 0.12099	-0.19561	 0.12885	-0.03196	 0.04277	 0.02613	 0.01733	-0.02428	-0.00047	-0.11831	 0.03461	-0.15103	 0.01704	-0.14837	 0.10037	 0.03267	-0.01225	-0.23260	 0.08471	 0.41438	 0.17074	 0.46934	 0.17517	 2.37411	 1.39865	 0.15658	 1.01398	NULL
    92	 0.72787	 0.37765	 0.53773	 0.68914	 1.18281	 1.42960	 0.49356	 0.23157	-0.06581	 0.11345	-0.21555	 0.12708	-0.04358	 0.04163	 0.01602	 0.01520	-0.04204	-0.00464	-0.13176	 0.03199	-0.15778	 0.01351	-0.16079	 0.09948	-0.00003	 0.00003	-0.22511	 0.02537	 0.41438	 0.17074	 0.45095	 0.18187	 2.38287	 1.40866	 0.15658	 1.01398	NULL
    93	 0.72787	 0.37765	 0.53773	 0.68914	 1.19155	 1.44594	 0.45664	 0.24463	-0.09202	 0.11216	-0.26406	 0.13604	-0.06498	 0.03978	-0.00502	 0.01206	-0.07985	-0.01144	-0.15859	 0.02670	-0.18177	 0.00830	-0.19541	 0.11177	-0.03336	-0.02153	-0.27133	 0.04219	 0.40461	 0.15243	 0.41745	 0.20999	 2.40917	 1.42720	 0.41685	 0.64026	NULL
    94	 0.72787	 0.37765	 0.53773	 0.68914	 1.19155	 1.44594	 0.45956	 0.22074	-0.11039	 0.11906	-0.28394	 0.13426	-0.07482	 0.03908	-0.01517	 0.00994	-0.10040	-0.01521	-0.17307	 0.02392	-0.18851	 0.00478	-0.20782	 0.11088	-0.06629	-0.02617	-0.27133	 0.04219	 0.37427	 0.16382	 0.41745	 0.20999	 2.42152	 1.43772	 0.41685	 0.64026	NULL
    95	 0.72787	 0.37765	 0.52612	 0.67400	 1.20027	 1.46231	 0.44113	 0.22726	-0.14180	 0.12529	-0.29514	 0.11999	-0.09619	 0.03722	-0.03537	 0.00565	-0.14580	-0.02383	-0.20196	 0.01833	-0.21865	 0.00183	-0.23256	 0.10906	-0.11571	-0.04157	-0.31747	 0.05899	 0.31367	 0.18657	 0.41423	 0.19524	 2.44974	 1.45357	 0.41685	 0.64026	NULL
    96	 0.75719	 0.36665	 0.52612	 0.67400	 1.20027	 1.46231	 0.44404	 0.20342	-0.13653	 0.11775	-0.34343	 0.12890	-0.10600	 0.03650	-0.04545	 0.00351	-0.16894	-0.02928	-0.21746	 0.01540	-0.23155	 0.00056	-0.24494	 0.10816	-0.13225	-0.05231	-0.30998	-0.00014	 0.30401	 0.16824	 0.39589	 0.20191	 2.46034	 1.46094	 0.41685	 0.64026	NULL
    97	 0.75719	 0.36665	 0.49655	 0.68446	 1.22764	 1.45203	 0.40724	 0.21643	-0.16264	 0.11644	-0.38300	 0.12531	-0.12351	 0.03211	-0.06420	-0.00046	-0.21196	-0.03738	-0.24100	 0.01059	-0.26164	-0.00240	-0.25729	 0.10724	-0.19733	-0.04480	-0.30998	-0.00014	 0.27379	 0.17959	 0.39267	 0.18717	 2.47623	 1.47204	 0.41685	 0.64026	NULL
    98	 0.75719	 0.36665	 0.49655	 0.68446	 1.22764	 1.45203	 0.40724	 0.21643	-0.18093	 0.12331	-0.38300	 0.12531	-0.12947	 0.02887	-0.07364	-0.00114	-0.22297	-0.03996	-0.24623	 0.01139	-0.27640	-0.00099	-0.26963	 0.10633	-0.19733	-0.04480	-0.30998	-0.00014	 0.27379	 0.17959	 0.39267	 0.18717	 2.48341	 1.47306	 0.41685	 0.64026	NULL
    99	 0.74455	 0.38471	 0.49655	 0.68446	 1.20899	 1.47870	 0.40431	 0.24029	-0.19396	 0.12265	-0.41137	 0.13596	-0.12842	 0.02738	-0.07125	-0.00457	-0.21071	-0.03915	-0.22604	 0.02266	-0.27828	 0.00168	-0.25729	 0.10724	-0.16435	-0.02331	-0.30998	-0.00014	 0.31367	 0.18657	 0.37755	 0.20859	 2.49416	 1.46883	 0.41685	 0.64026	NULL
   100	 0.74455	 0.38471	 0.50813	 0.69961	 1.23641	 1.46841	 0.41977	 0.25767	-0.19396	 0.12265	-0.39164	 0.13778	-0.11968	 0.02958	-0.05893	-0.00328	-0.18201	-0.03443	-0.20001	 0.03402	-0.25871	 0.00647	-0.24494	 0.10816	-0.09850	 0.00293	-0.30998	-0.00014	 0.33301	 0.22331	 0.39589	 0.20191	 2.49783	 1.46354	 0.15658	 1.01398	NULL
   101	 0.76124	 0.39178	 0.53133	 0.72996	 1.23641	 1.46841	 0.50622	 0.27289	-0.16013	 0.13217	-0.33229	 0.14318	-0.07833	 0.03821	-0.00590	 0.00137	-0.07989	-0.01870	-0.11684	 0.05952	-0.19554	 0.02128	-0.19541	 0.11177	 0.10007	 0.04797	-0.27133	 0.04219	 0.46321	 0.26283	 0.43258	 0.18855	 2.50346	 1.44974	 0.15658	 1.01398	NULL
   102	 0.79060	 0.38076	 0.54294	 0.74517	 1.26384	 1.45811	 0.54033	 0.28377	-0.13928	 0.14103	-0.29261	 0.14676	-0.05093	 0.04330	 0.02673	 0.00692	-0.01813	-0.00736	-0.07032	 0.07220	-0.14996	 0.02861	-0.17553	 0.12064	 0.20047	 0.07906	-0.17882	 0.00852	 0.52317	 0.30698	 0.43582	 0.20331	 2.50712	 1.44445	 0.15658	 1.01398	NULL
   103	 0.80735	 0.38781	 0.59595	 0.76512	 1.27262	 1.47451	 0.62742	 0.29898	-0.07912	 0.15187	-0.19302	 0.15568	 0.00646	 0.05588	 0.09662	 0.01637	 0.10146	 0.01632	 0.01317	 0.09153	-0.06468	 0.04554	-0.10583	 0.13313	 0.35265	 0.14309	-0.09327	 0.03398	 0.62409	 0.35845	 0.47586	 0.20468	 2.52164	 1.43489	 0.15658	 1.01398	NULL
   104	 0.80735	 0.38781	 0.57783	 0.79091	 1.27262	 1.47451	 0.66468	 0.28579	-0.03975	 0.15383	-0.15302	 0.15923	 0.02940	 0.06160	 0.12363	 0.02069	 0.14963	 0.02750	 0.04512	 0.09672	-0.02745	 0.05203	-0.08581	 0.14200	 0.42031	 0.15249	-0.04669	 0.01703	 0.66488	 0.36556	 0.47910	 0.21946	 2.53249	 1.43062	 0.15658	 1.01398	NULL
   105	 0.83676	 0.37677	 0.60762	 0.78038	 1.28141	 1.49093	 0.68047	 0.30327	 0.00758	 0.16402	-0.09286	 0.16454	 0.06404	 0.06847	 0.16167	 0.02602	 0.21469	 0.04464	 0.08404	 0.10054	 0.01858	 0.05935	-0.05329	 0.15180	 0.45466	 0.17448	-0.00727	 0.05952	 0.70578	 0.37267	 0.50079	 0.22755	 2.55401	 1.42792	 0.15658	 1.01398	NULL
   106	 0.83676	 0.37677	 0.62574	 0.75459	 1.28141	 1.49093	 0.69914	 0.29666	 0.03927	 0.15772	-0.07274	 0.16629	 0.07291	 0.07066	 0.17271	 0.02699	 0.23147	 0.05061	 0.09214	 0.10086	 0.03168	 0.06062	-0.04572	 0.15980	 0.47144	 0.16818	 0.03953	 0.04248	 0.72684	 0.34230	 0.51924	 0.22083	 2.56109	 1.42898	 0.15658	 1.01398	NULL
   107	 0.83676	 0.37677	 0.62574	 0.75459	 1.29018	 1.50739	 0.69914	 0.29666	 0.07100	 0.15140	-0.05262	 0.16806	 0.08176	 0.07287	 0.17776	 0.02935	 0.24887	 0.05568	 0.10004	 0.09805	 0.04670	 0.05917	-0.03322	 0.16070	 0.45425	 0.15718	-0.01468	 0.11928	 0.72684	 0.34230	 0.53770	 0.21411	 2.57540	 1.43108	 0.35628	 0.93538	NULL
   108	 0.83676	 0.37677	 0.62574	 0.75459	 1.29018	 1.50739	 0.69914	 0.29666	 0.08422	 0.15204	-0.05262	 0.16806	 0.08355	 0.07330	 0.17776	 0.02935	 0.25050	 0.05709	 0.09996	 0.09647	 0.04670	 0.05917	-0.03817	 0.16781	 0.45382	 0.13991	-0.01468	 0.11928	 0.69585	 0.35393	 0.55617	 0.20739	 2.57706	 1.43427	 0.35628	 0.93538	NULL
   109	 0.83676	 0.37677	 0.64384	 0.72882	 1.29018	 1.50739	 0.69914	 0.29666	 0.08422	 0.15204	-0.02373	 0.15721	 0.08637	 0.07224	 0.17551	 0.03019	 0.24710	 0.05632	 0.09483	 0.09188	 0.04670	 0.05917	-0.02070	 0.16160	 0.41990	 0.13523	 0.03953	 0.04248	 0.71688	 0.32361	 0.55617	 0.20739	 2.59142	 1.43631	 0.35628	 0.93538	NULL
   110	 0.83676	 0.37677	 0.64384	 0.72882	 1.31773	 1.49705	 0.69914	 0.29666	 0.06568	 0.15900	-0.02373	 0.15721	 0.08459	 0.07181	 0.17177	 0.03075	 0.24547	 0.05491	 0.09195	 0.08917	 0.04233	 0.05875	-0.02070	 0.16160	 0.40316	 0.14151	-0.00727	 0.05952	 0.68591	 0.33524	 0.55617	 0.20739	 2.59677	 1.43998	 0.61656	 0.56166	NULL
   111	 0.83676	 0.37677	 0.64384	 0.72882	 1.29898	 1.52386	 0.71783	 0.29005	 0.06568	 0.15900	-0.02373	 0.15721	 0.08492	 0.06836	 0.16898	 0.02753	 0.23596	 0.05166	 0.08091	 0.08454	 0.03112	 0.05479	-0.03322	 0.16070	 0.38562	 0.11334	 0.04672	-0.01698	 0.72786	 0.27475	 0.55617	 0.20739	 2.60732	 1.44741	 0.61656	 0.56166	NULL
   112	 0.83676	 0.37677	 0.64384	 0.72882	 1.32654	 1.51351	 0.71783	 0.29005	 0.06568	 0.15900	-0.01500	 0.14462	 0.08418	 0.06643	 0.16687	 0.02576	 0.23211	 0.04969	 0.07490	 0.08294	 0.02675	 0.05437	-0.03322	 0.16070	 0.36851	 0.10242	 0.04672	-0.01698	 0.69693	 0.28636	 0.55617	 0.20739	 2.61450	 1.44843	 0.61656	 0.56166	NULL
   113	 0.85354	 0.38383	 0.62574	 0.75459	 1.35413	 1.50315	 0.71783	 0.29005	 0.06568	 0.15900	-0.04389	 0.15547	 0.08170	 0.06405	 0.16407	 0.02256	 0.22033	 0.04595	 0.06672	 0.08105	 0.01367	 0.05310	-0.02827	 0.15360	 0.35142	 0.09149	-0.00002	 0.00003	 0.69693	 0.28636	 0.57467	 0.20065	 2.61972	 1.45796	 0.61656	 0.56166	NULL
   114	 0.85354	 0.38383	 0.65556	 0.74404	 1.35413	 1.50315	 0.71783	 0.29005	 0.04716	 0.16596	-0.04389	 0.15547	 0.08275	 0.06255	 0.16488	 0.02139	 0.21646	 0.04400	 0.06347	 0.08059	 0.00740	 0.05539	-0.02332	 0.14650	 0.35142	 0.09149	-0.00002	 0.00003	 0.69693	 0.28636	 0.57467	 0.20065	 2.62680	 1.45902	 0.61656	 0.56166	NULL
   115	 0.84087	 0.40196	 0.65556	 0.74404	 1.35413	 1.50315	 0.71783	 0.29005	 0.05248	 0.15836	-0.07274	 0.16629	 0.08097	 0.06212	 0.16276	 0.01964	 0.20745	 0.04192	 0.05914	 0.08001	 0.00740	 0.05539	-0.02332	 0.14650	 0.33478	 0.09774	-0.00002	 0.00003	 0.69693	 0.28636	 0.57467	 0.20065	 2.63928	 1.46377	 0.61656	 0.56166	NULL
   116	 0.84087	 0.40196	 0.63744	 0.76983	 1.38175	 1.49279	 0.71783	 0.29005	 0.03927	 0.15772	-0.09286	 0.16454	 0.08097	 0.06212	 0.16356	 0.01848	 0.20231	 0.04178	 0.05747	 0.07899	 0.00740	 0.05539	-0.04078	 0.15270	 0.33478	 0.09774	-0.00002	 0.00003	 0.66604	 0.29795	 0.57467	 0.20065	 2.64646	 1.46479	 0.61656	 0.56166	NULL
   117	 0.85354	 0.38383	 0.65556	 0.74404	 1.38175	 1.49279	 0.69914	 0.29666	 0.04458	 0.15013	-0.09286	 0.16454	 0.07741	 0.06125	 0.15692	 0.01841	 0.19557	 0.04022	 0.05293	 0.07528	 0.00303	 0.05498	-0.04078	 0.15270	 0.31813	 0.10399	-0.00002	 0.00003	 0.66604	 0.29795	 0.57467	 0.20065	 2.65176	 1.46852	 0.61656	 0.56166	NULL
   118	 0.82409	 0.39489	 0.65556	 0.74404	 1.38175	 1.49279	 0.69914	 0.29666	 0.04458	 0.15013	-0.09286	 0.16454	 0.07283	 0.06186	 0.15175	 0.01866	 0.18930	 0.03981	 0.04745	 0.07296	 0.00494	 0.05227	-0.04078	 0.15270	 0.31771	 0.08685	-0.00002	 0.00003	 0.66604	 0.29795	 0.57467	 0.20065	 2.65176	 1.46852	 0.35628	 0.93538	NULL
   119	 0.82409	 0.39489	 0.62574	 0.75459	 1.35413	 1.50315	 0.66179	 0.30987	 0.04988	 0.14254	-0.11293	 0.16277	 0.06118	 0.06070	 0.13783	 0.01707	 0.17579	 0.03670	 0.03415	 0.06649	-0.01248	 0.05059	-0.04078	 0.15270	 0.28408	 0.08219	 0.05376	-0.07616	 0.65611	 0.27936	 0.57467	 0.20065	 2.64821	 1.46794	 0.35628	 0.93538	NULL
   120	 0.82409	 0.39489	 0.62574	 0.75459	 1.35413	 1.50315	 0.66179	 0.30987	 0.04988	 0.14254	-0.11293	 0.16277	 0.05304	 0.06045	 0.13055	 0.01555	 0.16745	 0.03372	 0.02482	 0.06289	-0.02120	 0.04975	-0.05329	 0.15180	 0.26748	 0.08842	 0.00709	-0.05916	 0.62528	 0.29093	 0.57467	 0.20065	 2.64462	 1.46743	 0.35628	 0.93538	NULL
   121	 0.79468	 0.40593	 0.61405	 0.73935	 1.35413	 1.50315	 0.66468	 0.28579	 0.03668	 0.14191	-0.13298	 0.16100	 0.03711	 0.05650	 0.11081	 0.01274	 0.14338	 0.02710	 0.00508	 0.05553	-0.04104	 0.04495	-0.06578	 0.15090	 0.23355	 0.06664	-0.04669	 0.01703	 0.60547	 0.25383	 0.57136	 0.18587	 2.64654	 1.45899	 0.35628	 0.93538	NULL
   122	 0.79468	 0.40593	 0.61405	 0.73935	 1.35413	 1.50315	 0.66468	 0.28579	 0.02349	 0.14127	-0.12427	 0.14844	 0.02831	 0.05428	 0.10287	 0.00978	 0.12770	 0.02346	-0.00688	 0.05233	-0.05409	 0.04369	-0.07828	 0.15000	 0.21662	 0.05577	-0.09327	 0.03398	 0.57474	 0.26537	 0.55289	 0.19260	 2.64837	 1.45634	 0.35628	 0.93538	NULL
   123	 0.79468	 0.40593	 0.61405	 0.73935	 1.35413	 1.50315	 0.64893	 0.26835	-0.00815	 0.14756	-0.14431	 0.14668	 0.01169	 0.04840	 0.08317	 0.00697	 0.09237	 0.01629	-0.03500	 0.04691	-0.08448	 0.04074	-0.08581	 0.14200	 0.18279	 0.03408	-0.09327	 0.03398	 0.53421	 0.25836	 0.53442	 0.19932	 2.64837	 1.45634	 0.15658	 1.01398	NULL
   124	 0.79468	 0.40593	 0.61405	 0.73935	 1.35413	 1.50315	 0.64893	 0.26835	-0.02659	 0.15448	-0.16433	 0.14491	 0.00287	 0.04621	 0.06999	 0.00681	 0.07274	 0.01277	-0.04959	 0.04413	-0.09559	 0.03679	-0.09829	 0.14110	 0.14982	 0.04646	-0.09327	 0.03398	 0.52438	 0.23987	 0.51597	 0.20604	 2.65196	 1.45685	 0.35628	 0.93538	NULL
   125	 0.82409	 0.39489	 0.61405	 0.73935	 1.33535	 1.53001	 0.61170	 0.28152	-0.05288	 0.15318	-0.18432	 0.14314	-0.01301	 0.04226	 0.04886	 0.00371	 0.03194	 0.00431	-0.07920	 0.03927	-0.11968	 0.03157	-0.11828	 0.13223	 0.09972	 0.03095	-0.08600	-0.02527	 0.46321	 0.26283	 0.51270	 0.19126	 2.65547	 1.46316	 0.61656	 0.56166	NULL
   126	 0.82409	 0.39489	 0.61405	 0.73935	 1.30776	 1.54037	 0.59311	 0.28809	-0.06601	 0.15253	-0.20429	 0.14137	-0.02180	 0.04006	 0.03793	 0.00271	 0.01191	-0.00036	-0.09374	 0.03648	-0.13266	 0.03030	-0.14811	 0.13750	 0.08293	 0.02014	-0.13245	-0.00836	 0.48397	 0.23289	 0.51270	 0.19126	 2.65364	 1.46581	 0.61656	 0.56166	NULL
   127	 0.82409	 0.39489	 0.58429	 0.74988	 1.30776	 1.54037	 0.53739	 0.30780	-0.09223	 0.15122	-0.21555	 0.12708	-0.03763	 0.03610	 0.01910	-0.00123	-0.02936	-0.00793	-0.11964	 0.02979	-0.15671	 0.02509	-0.17296	 0.13567	 0.01702	 0.02777	-0.17882	 0.00852	 0.47417	 0.21446	 0.52785	 0.16980	 2.65710	 1.47218	 0.35628	 0.93538	NULL
   128	 0.82409	 0.39489	 0.58429	 0.74988	 1.30776	 1.54037	 0.54033	 0.28377	-0.10534	 0.15057	-0.24416	 0.13782	-0.04643	 0.03392	 0.01121	-0.00420	-0.04713	-0.01207	-0.13310	 0.02717	-0.17587	 0.02608	-0.18536	 0.13477	 0.01667	 0.01082	-0.17882	 0.00852	 0.44367	 0.22590	 0.50941	 0.17651	 2.65886	 1.47534	 0.35628	 0.93538	NULL
   129	 0.79468	 0.40593	 0.55456	 0.76039	 1.30776	 1.54037	 0.52473	 0.26634	-0.11313	 0.14234	-0.26406	 0.13604	-0.06227	 0.02997	-0.00534	-0.00901	-0.08555	-0.01797	-0.15729	 0.02148	-0.20175	 0.02354	-0.19776	 0.13385	-0.01670	-0.01076	-0.27889	 0.10156	 0.45457	 0.17768	 0.50941	 0.17651	 2.66223	 1.48175	 0.35628	 0.93538	NULL
   130	 0.79468	 0.40593	 0.55456	 0.76039	 1.30776	 1.54037	 0.50622	 0.27289	-0.10784	 0.13479	-0.28394	 0.13426	-0.07104	 0.02778	-0.01400	-0.01084	-0.10276	-0.02098	-0.17070	 0.01885	-0.21468	 0.02227	-0.21015	 0.13294	-0.03336	-0.02153	-0.32511	 0.11838	 0.42414	 0.18910	 0.47586	 0.20468	 2.66757	 1.48541	 0.35628	 0.93538	NULL
   131	 0.79468	 0.40593	 0.55456	 0.76039	 1.30776	 1.54037	 0.47218	 0.26201	-0.13928	 0.14103	-0.30380	 0.13248	-0.08682	 0.02382	-0.03195	-0.01595	-0.13888	-0.02635	-0.19691	 0.01443	-0.24049	 0.01973	-0.20524	 0.12589	-0.08255	-0.02007	-0.41733	 0.15196	 0.39374	 0.20051	 0.47586	 0.20468	 2.67829	 1.48701	 0.15658	 1.01398	NULL
   132	 0.79468	 0.40593	 0.55456	 0.76039	 1.29898	 1.52386	 0.45371	 0.26854	-0.13401	 0.13348	-0.32363	 0.13069	-0.09559	 0.02163	-0.04285	-0.01693	-0.15542	-0.03023	-0.21078	 0.01250	-0.24720	 0.01620	-0.21763	 0.12497	-0.09914	-0.03082	-0.41733	 0.15196	 0.38400	 0.18215	 0.45744	 0.21138	 2.68547	 1.48803	 0.15658	 1.01398	NULL
   133	 0.79468	 0.40593	 0.54294	 0.74517	 1.27143	 1.53420	 0.45956	 0.22074	-0.17844	 0.13904	-0.36322	 0.12711	-0.11312	 0.01725	-0.06526	-0.02035	-0.19520	-0.03754	-0.24058	 0.00833	-0.27296	 0.01365	-0.20782	 0.11088	-0.16435	-0.02331	-0.46335	 0.16871	 0.35366	 0.19354	 0.45744	 0.21138	 2.68364	 1.49067	 0.15658	 1.01398	NULL
   134	 0.79468	 0.40593	 0.56099	 0.71947	 1.27143	 1.53420	 0.44113	 0.22726	-0.19147	 0.13837	-0.38300	 0.12531	-0.12466	 0.01610	-0.07834	-0.02051	-0.21669	-0.04159	-0.25607	 0.00541	-0.28583	 0.01237	-0.22510	 0.11702	-0.18084	-0.03407	-0.45548	 0.10923	 0.32334	 0.20492	 0.43906	 0.21807	 2.67634	 1.49552	 0.15658	 1.01398	NULL
   135	 0.77795	 0.39885	 0.51972	 0.71477	 1.24393	 1.54452	 0.42563	 0.20993	-0.21751	 0.13704	-0.43109	 0.13415	-0.14215	 0.01171	-0.10071	-0.02393	-0.26396	-0.05073	-0.28646	-0.00117	-0.31154	 0.00982	-0.24984	 0.11520	-0.24579	-0.02661	-0.45548	 0.10923	 0.29306	 0.21629	 0.43582	 0.20331	 2.67091	 1.49766	 0.35628	 0.93538	NULL
   136	 0.77795	 0.39885	 0.51972	 0.71477	 1.26268	 1.51771	 0.40724	 0.21643	-0.23052	 0.13637	-0.45941	 0.14479	-0.15192	 0.01101	-0.10997	-0.02720	-0.28649	-0.05501	-0.29821	-0.00436	-0.33055	 0.01078	-0.26219	 0.11428	-0.26219	-0.03736	-0.44778	 0.05003	 0.31367	 0.18657	 0.43582	 0.20331	 2.66549	 1.49979	 0.35628	 0.93538	NULL
   137	 0.77795	 0.39885	 0.51972	 0.71477	 1.26268	 1.51771	 0.36753	 0.25329	-0.26175	 0.14255	-0.45078	 0.13234	-0.16692	 0.00899	-0.12418	-0.03284	-0.31174	-0.05896	-0.30709	-0.00331	-0.34764	 0.00907	-0.27454	 0.11337	-0.27858	-0.04809	-0.44778	 0.05003	 0.31367	 0.18657	 0.41745	 0.20999	 2.65836	 1.49870	 0.15658	 1.01398	NULL
   138	 0.76528	 0.41696	 0.50169	 0.74044	 1.26268	 1.51771	 0.38592	 0.24679	-0.26175	 0.14255	-0.45078	 0.13234	-0.16692	 0.00899	-0.12181	-0.03625	-0.30504	-0.05944	-0.29679	 0.00198	-0.34764	 0.00907	-0.29178	 0.11950	-0.23023	-0.06624	-0.39442	-0.02556	 0.32334	 0.20492	 0.41745	 0.20999	 2.64934	 1.50033	 0.15658	 1.01398	NULL
   139	 0.79468	 0.40593	 0.54294	 0.74517	 1.26268	 1.51771	 0.41682	 0.28159	-0.24876	 0.14322	-0.43109	 0.13415	-0.15224	 0.01441	-0.09855	-0.03656	-0.24613	-0.05064	-0.23879	 0.02086	-0.31103	 0.01559	-0.28434	 0.12745	-0.13162	-0.01863	-0.44778	 0.05003	 0.43389	 0.20749	 0.41745	 0.20999	 2.64422	 1.49076	 0.21758	 0.71869	NULL
   140	 0.79468	 0.40593	 0.55456	 0.76039	 1.27143	 1.53420	 0.47218	 0.26201	-0.24105	 0.15143	-0.41137	 0.13596	-0.13301	 0.01923	-0.07539	-0.03428	-0.19487	-0.04163	-0.19632	 0.03376	-0.28051	 0.02435	-0.28181	 0.14246	-0.03301	-0.00464	-0.40191	 0.03333	 0.46321	 0.26283	 0.43582	 0.20331	 2.63887	 1.48710	 0.21758	 0.71869	NULL
   141	 0.81141	 0.41302	 0.59595	 0.76512	 1.29898	 1.52386	 0.55887	 0.27721	-0.17595	 0.15479	-0.33229	 0.14318	-0.08222	 0.03197	-0.01553	-0.02295	-0.06849	-0.02021	-0.10357	 0.05906	-0.19397	 0.03865	-0.22491	 0.15413	 0.16668	 0.05731	-0.31747	 0.05899	 0.59448	 0.30249	 0.47259	 0.18992	 2.63724	 1.47808	 0.21758	 0.71869	NULL
   142	 0.84087	 0.40196	 0.60762	 0.78038	 1.30776	 1.54037	 0.57453	 0.29466	-0.14985	 0.15613	-0.29261	 0.14676	-0.05588	 0.03856	 0.01564	-0.01773	-0.00734	-0.00797	-0.06245	 0.06941	-0.15460	 0.04828	-0.20506	 0.16305	 0.25051	 0.07752	-0.22511	 0.02537	 0.66604	 0.29795	 0.49427	 0.19798	 2.64091	 1.47279	 0.21758	 0.71869	NULL
   143	 0.87034	 0.39089	 0.60762	 0.78038	 1.33535	 1.53001	 0.64604	 0.29239	-0.08971	 0.16701	-0.21298	 0.15390	-0.01085	 0.04805	 0.06120	-0.00687	 0.09029	 0.01371	-0.00086	 0.08106	-0.08477	 0.06087	-0.16031	 0.17380	 0.35224	 0.12587	-0.18623	 0.06783	 0.69585	 0.35393	 0.53442	 0.19932	 2.64633	 1.47065	 0.15658	 1.01398	NULL
   144	 0.87034	 0.39089	 0.63744	 0.76983	 1.33535	 1.53001	 0.66468	 0.28579	-0.05817	 0.16075	-0.20172	 0.16823	 0.00607	 0.05051	 0.07570	-0.00382	 0.12322	 0.02242	 0.01802	 0.08288	-0.06498	 0.06569	-0.13544	 0.17564	 0.36934	 0.13682	-0.13978	 0.05092	 0.72684	 0.34230	 0.55289	 0.19260	 2.64992	 1.47116	 0.15658	 1.01398	NULL
   145	 0.87034	 0.39089	 0.63744	 0.76983	 1.36296	 1.51964	 0.68334	 0.27920	-0.03719	 0.16964	-0.16173	 0.17179	 0.02757	 0.05235	 0.09021	-0.00077	 0.15706	 0.03549	 0.03512	 0.08213	-0.03888	 0.06823	-0.09805	 0.17838	 0.38603	 0.13055	-0.09327	 0.03398	 0.70578	 0.37267	 0.57467	 0.20065	 2.65886	 1.47534	 0.35628	 0.93538	NULL
   146	 0.87034	 0.39089	 0.61929	 0.79567	 1.36296	 1.51964	 0.68334	 0.27920	-0.01875	 0.16272	-0.16173	 0.17179	 0.03215	 0.05174	 0.09087	 0.00067	 0.16428	 0.03821	 0.03717	 0.08088	-0.02828	 0.06638	-0.08061	 0.17219	 0.38562	 0.11334	-0.04669	 0.01703	 0.70578	 0.37267	 0.57467	 0.20065	 2.66406	 1.47911	 0.35628	 0.93538	NULL
   147	 0.89985	 0.37982	 0.64913	 0.78511	 1.36296	 1.51964	 0.68334	 0.27920	-0.00558	 0.16336	-0.14170	 0.17357	 0.03568	 0.05262	 0.09246	-0.00162	 0.16286	 0.04208	 0.03531	 0.07674	-0.02828	 0.06638	-0.06812	 0.17310	 0.36851	 0.10242	-0.10069	 0.09353	 0.69585	 0.35393	 0.57467	 0.20065	 2.67842	 1.48114	 0.55643	 0.85661	NULL
   148	 0.87034	 0.39089	 0.64913	 0.78511	 1.31655	 1.55690	 0.68334	 0.27920	-0.00558	 0.16336	-0.14170	 0.17357	 0.03568	 0.05262	 0.09100	-0.00192	 0.15886	 0.04219	 0.03247	 0.07401	-0.03264	 0.06595	-0.06812	 0.17310	 0.36808	 0.08524	-0.05401	 0.07653	 0.69585	 0.35393	 0.59315	 0.19393	 2.68739	 1.47959	 0.55643	 0.85661	NULL
   149	 0.87034	 0.39089	 0.63744	 0.76983	 1.31655	 1.55690	 0.68334	 0.27920	-0.00558	 0.16336	-0.14170	 0.17357	 0.03498	 0.05068	 0.08906	-0.00629	 0.14876	 0.03985	 0.02256	 0.06955	-0.04133	 0.06510	-0.08061	 0.17219	 0.33436	 0.08060	-0.05401	 0.07653	 0.65498	 0.34685	 0.57795	 0.21546	 2.69457	 1.48061	 0.55643	 0.85661	NULL
   150	 0.85766	 0.40903	 0.63744	 0.76983	 1.34416	 1.54653	 0.68334	 0.27920	-0.00558	 0.16336	-0.17045	 0.18436	 0.03143	 0.04982	 0.08468	-0.00719	 0.14201	 0.03829	 0.01705	 0.06724	-0.05003	 0.06426	-0.07567	 0.16509	 0.31771	 0.08685	-0.10069	 0.09353	 0.64508	 0.32818	 0.57795	 0.21546	 2.69457	 1.48061	 0.55643	 0.85661	NULL
   151	 0.85766	 0.40903	 0.65556	 0.74404	 1.34416	 1.54653	 0.68334	 0.27920	-0.00558	 0.16336	-0.19045	 0.18257	 0.02612	 0.04850	 0.07823	-0.00987	 0.12921	 0.03427	 0.00821	 0.06293	-0.06307	 0.06299	-0.10557	 0.17037	 0.28408	 0.08219	-0.10069	 0.09353	 0.63518	 0.30954	 0.55947	 0.22219	 2.69098	 1.48010	 0.55643	 0.85661	NULL
   152	 0.84496	 0.42719	 0.65556	 0.74404	 1.34416	 1.54653	 0.66179	 0.30987	-0.02405	 0.17030	-0.19045	 0.18257	 0.02437	 0.04805	 0.07611	-0.01162	 0.12486	 0.03117	 0.00548	 0.06177	-0.06741	 0.06256	-0.10557	 0.17037	 0.26748	 0.08842	-0.14726	 0.11048	 0.65611	 0.27936	 0.57467	 0.20065	 2.68384	 1.47901	 0.55643	 0.85661	NULL
   153	 0.84496	 0.42719	 0.65556	 0.74404	 1.36296	 1.51964	 0.66179	 0.30987	-0.02405	 0.17030	-0.18174	 0.17001	 0.02259	 0.04762	 0.07481	-0.01452	 0.11670	 0.02612	 0.00165	 0.06047	-0.06551	 0.05987	-0.10557	 0.17037	 0.26748	 0.08842	-0.14726	 0.11048	 0.62528	 0.29093	 0.55617	 0.20739	 2.67132	 1.47433	 0.35628	 0.93538	NULL
   154	 0.82818	 0.42010	 0.65556	 0.74404	 1.36296	 1.51964	 0.66179	 0.30987	-0.02405	 0.17030	-0.18174	 0.17001	 0.02259	 0.04762	 0.07415	-0.01597	 0.11286	 0.02418	-0.00099	 0.06087	-0.06986	 0.05945	-0.10557	 0.17037	 0.26748	 0.08842	-0.14726	 0.11048	 0.62528	 0.29093	 0.55617	 0.20739	 2.66602	 1.47060	 0.35628	 0.93538	NULL
   155	 0.82818	 0.42010	 0.65556	 0.74404	 1.36296	 1.51964	 0.68334	 0.27920	-0.02405	 0.17030	-0.19045	 0.18257	 0.02364	 0.04612	 0.07349	-0.01741	 0.11027	 0.02045	-0.00376	 0.05973	-0.07610	 0.06173	-0.11051	 0.17746	 0.25089	 0.09465	-0.14726	 0.11048	 0.65611	 0.27936	 0.55617	 0.20739	 2.66619	 1.46476	 0.35628	 0.93538	NULL
   156	 0.82818	 0.42010	 0.67366	 0.71827	 1.36296	 1.51964	 0.66468	 0.28579	-0.02405	 0.17030	-0.19045	 0.18257	 0.02469	 0.04463	 0.07057	-0.01801	 0.10627	 0.02057	-0.00649	 0.05857	-0.07420	 0.05902	-0.11051	 0.17746	 0.26708	 0.07130	-0.14726	 0.11048	 0.65611	 0.27936	 0.53770	 0.21411	 2.66803	 1.46211	 0.35628	 0.93538	NULL
   157	 0.79872	 0.43115	 0.64384	 0.72882	 1.34416	 1.54653	 0.66468	 0.28579	-0.04249	 0.17722	-0.18174	 0.17001	 0.02044	 0.04182	 0.06255	-0.01839	 0.09780	 0.01965	-0.01481	 0.05356	-0.08287	 0.05818	-0.10557	 0.17037	 0.23355	 0.06664	-0.13978	 0.05092	 0.62528	 0.29093	 0.53770	 0.21411	 2.66969	 1.46531	 0.35628	 0.93538	NULL
   158	 0.82818	 0.42010	 0.64384	 0.72882	 1.34416	 1.54653	 0.64604	 0.29239	-0.05565	 0.17657	-0.20172	 0.16823	 0.01796	 0.03945	 0.05595	-0.01846	 0.09157	 0.01926	-0.02245	 0.05095	-0.09155	 0.05733	-0.12297	 0.17655	 0.23315	 0.04957	-0.13978	 0.05092	 0.59448	 0.30249	 0.53770	 0.21411	 2.67328	 1.46582	 0.15658	 1.01398	NULL
   159	 0.82818	 0.42010	 0.61405	 0.73935	 1.34416	 1.54653	 0.60879	 0.30556	-0.06877	 0.17591	-0.22167	 0.16644	 0.00665	 0.03488	 0.03841	-0.01950	 0.07068	 0.01753	-0.03996	 0.04389	-0.10076	 0.05067	-0.11803	 0.16946	 0.16668	 0.05731	-0.13978	 0.05092	 0.58461	 0.28392	 0.55289	 0.19260	 2.67328	 1.46582	 0.15658	 1.01398	NULL
   160	 0.84087	 0.40196	 0.61405	 0.73935	 1.34416	 1.54653	 0.61170	 0.28152	-0.08719	 0.18282	-0.22167	 0.16644	-0.00042	 0.03314	 0.02893	-0.02018	 0.05777	 0.01555	-0.05241	 0.04141	-0.10943	 0.04983	-0.11309	 0.16236	 0.14982	 0.04646	-0.18623	 0.06783	 0.57474	 0.26537	 0.55289	 0.19260	 2.67511	 1.46317	 0.35628	 0.93538	NULL
   161	 0.84087	 0.40196	 0.60236	 0.72415	 1.33535	 1.53001	 0.59601	 0.26408	-0.10030	 0.18215	-0.24160	 0.16464	-0.01346	 0.02813	 0.01157	-0.02382	 0.02640	 0.01033	-0.07625	 0.03505	-0.12917	 0.04501	-0.12557	 0.16146	 0.09972	 0.03095	-0.18623	 0.06783	 0.53421	 0.25836	 0.53442	 0.19932	 2.66273	 1.45838	 0.61656	 0.56166	NULL
   162	 0.85354	 0.38383	 0.57263	 0.73467	 1.32654	 1.51351	 0.59889	 0.24011	-0.09500	 0.17457	-0.26152	 0.16286	-0.01945	 0.02488	 0.00368	-0.02679	 0.00797	 0.00706	-0.08973	 0.03241	-0.14215	 0.04374	-0.13800	 0.16054	 0.08293	 0.02014	-0.23260	 0.08471	 0.53421	 0.25836	 0.53442	 0.19932	 2.65738	 1.45472	 0.61656	 0.56166	NULL
   163	 0.82409	 0.39489	 0.56099	 0.71947	 1.31773	 1.49705	 0.58320	 0.22274	-0.10810	 0.17391	-0.28142	 0.16107	-0.03530	 0.02095	-0.01207	-0.03271	-0.02998	 0.00027	-0.11769	 0.02699	-0.16809	 0.04120	-0.14551	 0.15254	 0.04941	-0.00147	-0.27889	 0.10156	 0.49377	 0.25136	 0.51597	 0.20604	 2.63968	 1.44044	 0.61656	 0.56166	NULL
   164	 0.79468	 0.40593	 0.53133	 0.72996	 1.33646	 1.47027	 0.58605	 0.19886	-0.12120	 0.17325	-0.30128	 0.15926	-0.04513	 0.02024	-0.01995	-0.03567	-0.04884	-0.00416	-0.13271	 0.02492	-0.18103	 0.03993	-0.15796	 0.15164	 0.03267	-0.01225	-0.22511	 0.02537	 0.46321	 0.26283	 0.51597	 0.20604	 2.63092	 1.43043	 0.61656	 0.56166	NULL
   165	 0.76528	 0.41696	 0.51972	 0.71477	 1.30011	 1.46419	 0.54902	 0.21195	-0.12898	 0.16502	-0.34095	 0.15566	-0.06376	 0.01737	-0.04091	-0.03878	-0.08996	-0.01173	-0.16266	 0.02075	-0.20690	 0.03738	-0.18281	 0.14982	-0.01705	-0.02765	-0.27133	 0.04219	 0.44367	 0.22590	 0.49427	 0.19798	 2.59362	 1.41041	 0.15658	 1.01398	NULL
   166	 0.77795	 0.39885	 0.50813	 0.69961	 1.26384	 1.45811	 0.53052	 0.21850	-0.14207	 0.16436	-0.34095	 0.15566	-0.07356	 0.01665	-0.05102	-0.04089	-0.11049	-0.01552	-0.17557	 0.01742	-0.21983	 0.03610	-0.19521	 0.14890	-0.03371	-0.03840	-0.27133	 0.04219	 0.40346	 0.21891	 0.47586	 0.20468	 2.57423	 1.39876	 0.15658	 1.01398	NULL
   167	 0.77795	 0.39885	 0.49655	 0.68446	 1.25506	 1.44174	 0.47509	 0.23810	-0.18123	 0.16234	-0.38052	 0.15205	-0.09215	 0.01376	-0.06974	-0.04483	-0.14974	-0.02371	-0.20388	 0.01268	-0.24565	 0.03355	-0.21999	 0.14706	-0.08289	-0.03692	-0.37125	 0.13518	 0.36335	 0.21192	 0.43582	 0.20331	 2.53150	 1.38097	 0.15658	 1.01398	NULL
   168	 0.74859	 0.40987	 0.51451	 0.65889	 1.24627	 1.42539	 0.43821	 0.25115	-0.19426	 0.16167	-0.40894	 0.16271	-0.10369	 0.01261	-0.07979	-0.04696	-0.16846	-0.02813	-0.21775	 0.01076	-0.26283	 0.03184	-0.21507	 0.14000	-0.09948	-0.04766	-0.41733	 0.15196	 0.35366	 0.19354	 0.43258	 0.18855	 2.51387	 1.37248	-0.04269	 1.09241	NULL
   169	 0.76124	 0.39178	 0.50290	 0.64381	 1.21014	 1.41934	 0.40431	 0.24029	-0.22031	 0.16032	-0.42866	 0.16089	-0.12227	 0.00973	-0.09927	-0.04977	-0.20538	-0.03582	-0.24338	 0.00564	-0.28859	 0.02928	-0.24474	 0.14523	-0.13259	-0.06910	-0.40957	 0.09252	 0.34395	 0.17521	 0.41423	 0.19524	 2.47834	 1.36147	-0.04269	 1.09241	NULL
   170	 0.76124	 0.39178	 0.47339	 0.65424	 1.18281	 1.42960	 0.40724	 0.21643	-0.23331	 0.15964	-0.42866	 0.16089	-0.13101	 0.00753	-0.10932	-0.05190	-0.22297	-0.03996	-0.25517	 0.00246	-0.29956	 0.02532	-0.23983	 0.13817	-0.16530	-0.07373	-0.40957	 0.09252	 0.31367	 0.18657	 0.39589	 0.20191	 2.46953	 1.35153	-0.04269	 1.09241	NULL
   171	 0.77388	 0.37370	 0.46182	 0.63916	 1.17408	 1.41329	 0.37342	 0.20562	-0.25930	 0.15828	-0.46805	 0.15724	-0.14849	 0.00315	-0.13099	-0.05385	-0.25805	-0.04826	-0.28074	-0.00268	-0.32525	 0.02275	-0.26947	 0.14339	-0.19829	-0.09510	-0.40191	 0.03333	 0.30401	 0.16824	 0.39267	 0.18717	 2.44309	 1.33310	 0.01880	 0.79692	NULL
   172	 0.74455	 0.38471	 0.43238	 0.64958	 1.14679	 1.42354	 0.37634	 0.18184	-0.27228	 0.15760	-0.49634	 0.16786	-0.15721	 0.00096	-0.14101	-0.05599	-0.27727	-0.05180	-0.29203	-0.00655	-0.33809	 0.02147	-0.28672	 0.14951	-0.23085	-0.09972	-0.44778	 0.05003	 0.26416	 0.16129	 0.39267	 0.18717	 2.43084	 1.32254	 0.01880	 0.79692	NULL
   173	 0.72787	 0.37765	 0.42085	 0.63451	 1.11086	 1.41746	 0.36090	 0.16459	-0.29295	 0.14871	-0.53558	 0.16418	-0.17644	-0.00383	-0.16183	-0.05910	-0.31831	-0.06051	-0.32024	-0.01282	-0.35758	 0.01666	-0.29416	 0.14155	-0.27945	-0.09831	-0.49357	 0.06670	 0.22440	 0.15433	 0.37112	 0.17912	 2.40614	 1.30160	 0.01880	 0.79692	NULL
   174	 0.74049	 0.35961	 0.43872	 0.60906	 1.12938	 1.39097	 0.32430	 0.17754	-0.30591	 0.14803	-0.55517	 0.16234	-0.18616	-0.00457	-0.17409	-0.06038	-0.34073	-0.06482	-0.33561	-0.01577	-0.36850	 0.01270	-0.31141	 0.14767	-0.31188	-0.10294	-0.53928	 0.08334	 0.21478	 0.13609	 0.38620	 0.15776	 2.39381	 1.29684	 0.01880	 0.79692	NULL
   175	 0.71122	 0.37060	 0.40933	 0.61946	 1.12069	 1.37473	 0.30893	 0.16029	-0.31885	 0.14735	-0.56612	 0.14807	-0.20740	-0.00641	-0.19772	-0.06411	-0.38551	-0.07343	-0.36520	-0.01993	-0.39598	 0.01279	-0.33112	 0.13877	-0.34453	-0.12424	-0.53158	 0.02437	 0.17515	 0.12914	 0.36469	 0.14973	 2.37771	 1.29740	 0.01880	 0.79692	NULL
   176	 0.71122	 0.37060	 0.40933	 0.61946	 1.12069	 1.37473	 0.29067	 0.16675	-0.33180	 0.14667	-0.59428	 0.15865	-0.21437	-0.00816	-0.20993	-0.06540	-0.40350	-0.07669	-0.37367	-0.02111	-0.40876	 0.01150	-0.34344	 0.13784	-0.34484	-0.14087	-0.53158	 0.02437	 0.17515	 0.12914	 0.34640	 0.15639	 2.37404	 1.30269	-0.17959	 0.87501	NULL
   177	 0.71122	 0.37060	 0.39145	 0.64490	 1.12938	 1.39097	 0.26947	 0.19693	-0.36289	 0.15280	-0.61380	 0.15679	-0.22411	-0.00887	-0.22278	-0.06812	-0.40892	-0.07799	-0.36601	-0.01546	-0.42530	 0.01555	-0.35572	 0.13690	-0.32852	-0.13025	-0.57714	 0.04095	 0.20519	 0.11787	 0.34640	 0.15639	 2.38084	 1.32112	-0.17959	 0.87501	NULL
   178	 0.74049	 0.35961	 0.42085	 0.63451	 1.18386	 1.37052	 0.30600	 0.18401	-0.36815	 0.16032	-0.61380	 0.15679	-0.22062	-0.00801	-0.21614	-0.07061	-0.39094	-0.07473	-0.34567	-0.00799	-0.41867	 0.01908	-0.36062	 0.14395	-0.27976	-0.11500	-0.57714	 0.04095	 0.22440	 0.15433	 0.34640	 0.15639	 2.39144	 1.32848	-0.17959	 0.87501	NULL
   179	 0.75719	 0.36665	 0.45545	 0.67978	 1.20138	 1.40304	 0.35213	 0.23593	-0.34231	 0.16170	-0.58335	 0.17292	-0.19172	-0.00248	-0.17714	-0.07015	-0.30599	-0.06172	-0.27293	 0.01454	-0.37127	 0.02957	-0.32371	 0.14674	-0.11639	-0.07518	-0.44021	-0.00889	 0.34395	 0.17521	 0.34962	 0.17107	 2.41433	 1.34634	 0.07915	 0.50349	NULL
   180	 0.74455	 0.38471	 0.49655	 0.68446	 1.21014	 1.41934	 0.38592	 0.24679	-0.33462	 0.16990	-0.54420	 0.17662	-0.16906	 0.00323	-0.14761	-0.06779	-0.24488	-0.05240	-0.22838	 0.02772	-0.33657	 0.03879	-0.29906	 0.14859	-0.01742	-0.04452	-0.44778	 0.05003	 0.37306	 0.23033	 0.37112	 0.17912	 2.42483	 1.35374	 0.07915	 0.50349	NULL
   181	 0.79060	 0.38076	 0.53133	 0.72996	 1.25506	 1.44174	 0.47218	 0.26201	-0.27511	 0.18090	-0.46566	 0.18401	-0.11559	 0.01488	-0.08052	-0.06018	-0.11966	-0.02805	-0.14028	 0.04930	-0.25218	 0.05585	-0.24222	 0.16028	 0.14943	 0.02944	-0.26390	-0.01691	 0.50357	 0.26987	 0.39589	 0.20191	 2.45682	 1.36417	 0.27754	 0.42540	NULL
   182	 0.77795	 0.39885	 0.56099	 0.71947	 1.28249	 1.43144	 0.50622	 0.27289	-0.25441	 0.18981	-0.42625	 0.18769	-0.09105	 0.02102	-0.05159	-0.05671	-0.06486	-0.01623	-0.10424	 0.05664	-0.20914	 0.06014	-0.22237	 0.16920	 0.21662	 0.05577	-0.27133	 0.04219	 0.54403	 0.27690	 0.41423	 0.19524	 2.47284	 1.36940	 0.27754	 0.42540	NULL
   183	 0.80735	 0.38781	 0.57263	 0.73467	 1.29129	 1.44780	 0.56178	 0.25324	-0.20237	 0.19257	-0.36697	 0.19318	-0.05210	 0.02725	-0.01634	-0.04801	 0.01334	 0.00311	-0.05901	 0.06447	-0.15683	 0.07109	-0.17769	 0.17997	 0.28408	 0.08219	-0.18623	 0.06783	 0.56371	 0.31404	 0.45421	 0.19661	 2.50119	 1.37939	 0.21758	 0.71869	NULL
   184	 0.80735	 0.38781	 0.57263	 0.73467	 1.29129	 1.44780	 0.54033	 0.28377	-0.19462	 0.20081	-0.34716	 0.19500	-0.04050	 0.02838	-0.00767	-0.04619	 0.03611	 0.00945	-0.04778	 0.06527	-0.13953	 0.07279	-0.17019	 0.18798	 0.26787	 0.10556	-0.18623	 0.06783	 0.56371	 0.31404	 0.45744	 0.21138	 2.51174	 1.38683	 0.21758	 0.71869	NULL
   185	 0.79468	 0.40593	 0.59069	 0.70897	 1.27262	 1.47451	 0.54325	 0.25979	-0.15014	 0.19528	-0.32733	 0.19683	-0.02404	 0.02552	-0.00494	-0.04300	 0.05366	 0.01771	-0.04141	 0.06460	-0.13278	 0.07635	-0.14532	 0.18983	 0.26748	 0.08842	-0.19378	 0.12742	 0.56371	 0.31404	 0.49427	 0.19798	 2.53669	 1.39623	-0.04269	 1.09241	NULL
   186	 0.79468	 0.40593	 0.59069	 0.70897	 1.27262	 1.47451	 0.52473	 0.26634	-0.15014	 0.19528	-0.33603	 0.20937	-0.02125	 0.02447	-0.00862	-0.04246	 0.05586	 0.01826	-0.04258	 0.06289	-0.12845	 0.07677	-0.14532	 0.18983	 0.26708	 0.07130	-0.19378	 0.12742	 0.55387	 0.29546	 0.49427	 0.19798	 2.54912	 1.40095	-0.04269	 1.09241	NULL
   187	 0.82409	 0.39489	 0.59069	 0.70897	 1.25391	 1.50126	 0.52473	 0.26634	-0.13708	 0.19596	-0.30748	 0.19865	-0.02300	 0.02402	-0.01583	-0.04398	 0.04616	 0.01911	-0.04715	 0.05759	-0.13278	 0.07635	-0.13286	 0.19075	 0.21700	 0.07285	-0.24023	 0.14432	 0.54403	 0.27690	 0.49427	 0.19798	 2.56501	 1.41205	 0.15658	 1.01398	NULL
   188	 0.82409	 0.39489	 0.56099	 0.71947	 1.28141	 1.49093	 0.50622	 0.27289	-0.13708	 0.19596	-0.31619	 0.21120	-0.02475	 0.02357	-0.01871	-0.04459	 0.04059	 0.01782	-0.05263	 0.05530	-0.13710	 0.07591	-0.13286	 0.19075	 0.21662	 0.05577	-0.18623	 0.06783	 0.51338	 0.28841	 0.49427	 0.19798	 2.56484	 1.41789	 0.15658	 1.01398	NULL
   189	 0.82409	 0.39489	 0.56099	 0.71947	 1.28141	 1.49093	 0.52764	 0.24239	-0.13708	 0.19596	-0.34473	 0.22192	-0.02826	 0.02270	-0.02593	-0.04610	 0.02549	 0.01531	-0.06261	 0.04929	-0.14575	 0.07506	-0.12791	 0.18364	 0.19929	 0.02789	-0.23260	 0.08471	 0.50357	 0.26987	 0.49427	 0.19798	 2.57018	 1.42155	 0.15658	 1.01398	NULL
   190	 0.82409	 0.39489	 0.56099	 0.71947	 1.30891	 1.48061	 0.52764	 0.24239	-0.13708	 0.19596	-0.34473	 0.22192	-0.03283	 0.02332	-0.02578	-0.04869	 0.02052	 0.01313	-0.06698	 0.04712	-0.14818	 0.07194	-0.12791	 0.18364	 0.16631	 0.04027	-0.23260	 0.08471	 0.50357	 0.26987	 0.47586	 0.20468	 2.57018	 1.42155	 0.15658	 1.01398	NULL
   191	 0.82409	 0.39489	 0.54294	 0.74517	 1.30891	 1.48061	 0.54616	 0.23584	-0.13708	 0.19596	-0.34473	 0.22192	-0.03355	 0.02139	-0.02788	-0.05042	 0.01003	 0.00963	-0.07246	 0.04483	-0.15250	 0.07151	-0.14532	 0.18983	 0.16592	 0.02325	-0.17882	 0.00852	 0.49377	 0.25136	 0.47259	 0.18992	 2.57385	 1.41626	 0.41685	 0.64026	NULL
   192	 0.82409	 0.39489	 0.54294	 0.74517	 1.30891	 1.48061	 0.54616	 0.23584	-0.13708	 0.19596	-0.31619	 0.21120	-0.03355	 0.02139	-0.02934	-0.05072	 0.00623	 0.00769	-0.07353	 0.04468	-0.15250	 0.07151	-0.14532	 0.18983	 0.16592	 0.02325	-0.17882	 0.00852	 0.49377	 0.25136	 0.47259	 0.18992	 2.57568	 1.41362	 0.41685	 0.64026	NULL
   193	 0.82409	 0.39489	 0.57263	 0.73467	 1.30891	 1.48061	 0.54616	 0.23584	-0.13708	 0.19596	-0.30748	 0.19865	-0.03355	 0.02139	-0.02997	-0.05218	 0.00429	 0.00308	-0.07353	 0.04468	-0.15008	 0.07463	-0.14532	 0.18983	 0.16631	 0.04027	-0.17882	 0.00852	 0.52438	 0.23987	 0.47259	 0.18992	 2.58653	 1.40935	 0.15658	 1.01398	NULL
   194	 0.82409	 0.39489	 0.57263	 0.73467	 1.30891	 1.48061	 0.54616	 0.23584	-0.13708	 0.19596	-0.30748	 0.19865	-0.03076	 0.02034	-0.02919	-0.05330	 0.00271	 0.00166	-0.07353	 0.04468	-0.15008	 0.07463	-0.14532	 0.18983	 0.15020	 0.06350	-0.17882	 0.00852	 0.52438	 0.23987	 0.49101	 0.18321	 2.59362	 1.41041	 0.15658	 1.01398	NULL
   195	 0.81141	 0.41302	 0.57263	 0.73467	 1.31773	 1.49705	 0.54616	 0.23584	-0.13708	 0.19596	-0.33603	 0.20937	-0.03355	 0.02139	-0.03273	-0.05535	 0.00046	 0.00115	-0.07939	 0.04463	-0.15008	 0.07463	-0.14038	 0.18273	 0.13371	 0.06969	-0.23260	 0.08471	 0.50357	 0.26987	 0.49101	 0.18321	 2.60785	 1.41831	 0.15658	 1.01398	NULL
   196	 0.81141	 0.41302	 0.55456	 0.76039	 1.31773	 1.49705	 0.54616	 0.23584	-0.13178	 0.18838	-0.32733	 0.19683	-0.03635	 0.02244	-0.03561	-0.05596	-0.00413	 0.00216	-0.08428	 0.04319	-0.14818	 0.07194	-0.13544	 0.17564	 0.13333	 0.05265	-0.23260	 0.08471	 0.52438	 0.23987	 0.49427	 0.19798	 2.61844	 1.42568	 0.15658	 1.01398	NULL
   197	 0.81141	 0.41302	 0.55456	 0.76039	 1.32654	 1.51351	 0.52764	 0.24239	-0.13178	 0.18838	-0.35585	 0.20753	-0.04339	 0.02069	-0.04569	-0.05808	-0.01602	 0.00250	-0.09678	 0.03915	-0.16115	 0.07066	-0.14787	 0.17472	 0.10007	 0.04797	-0.23260	 0.08471	 0.49377	 0.25136	 0.49427	 0.19798	 2.63773	 1.44895	 0.15658	 1.01398	NULL
   198	 0.84087	 0.40196	 0.55456	 0.76039	 1.32654	 1.51351	 0.52764	 0.24239	-0.13178	 0.18838	-0.37566	 0.20570	-0.04760	 0.01787	-0.05290	-0.05959	-0.02444	 0.00158	-0.10232	 0.03530	-0.16979	 0.06980	-0.16525	 0.18089	 0.09972	 0.03095	-0.27889	 0.10156	 0.46321	 0.26283	 0.50941	 0.17651	 2.65906	 1.46367	 0.35628	 0.93538	NULL
   199	 0.82818	 0.42010	 0.58429	 0.74988	 1.34416	 1.54653	 0.50914	 0.24893	-0.13956	 0.18014	-0.39542	 0.20386	-0.06446	 0.01542	-0.07176	-0.06095	-0.04567	-0.00132	-0.11916	 0.02910	-0.18897	 0.07079	-0.19011	 0.17905	 0.05012	 0.03245	-0.32511	 0.11838	 0.45343	 0.24436	 0.49101	 0.18321	 2.72454	 1.51130	 0.61656	 0.56166	NULL
   200	 0.84496	 0.42719	 0.59595	 0.76512	 1.36178	 1.57966	 0.49064	 0.25548	-0.15793	 0.18704	-0.41518	 0.20202	-0.07220	 0.01176	-0.08182	-0.06305	-0.05613	-0.00481	-0.12784	 0.02636	-0.19760	 0.06993	-0.20252	 0.17812	 0.04977	 0.01547	-0.32511	 0.11838	 0.45343	 0.24436	 0.49101	 0.18321	 2.79735	 1.56004	 0.61656	 0.56166	NULL
   201	 0.91225	 0.45563	 0.66606	 0.85702	 1.50586	 1.72590	 0.44777	 0.31651	-0.17098	 0.18636	-0.45463	 0.19834	-0.09431	 0.00800	-0.10558	-0.06676	-0.08208	-0.01194	-0.14522	 0.01932	-0.21863	 0.07359	-0.22237	 0.16920	 0.01702	 0.02777	-0.41733	 0.15196	 0.45343	 0.24436	 0.49101	 0.18321	 3.13848	 1.77170	 0.35628	 0.93538	NULL
   202	 0.99679	 0.49128	 0.67624	 0.97101	 1.62284	 1.88512	 0.46328	 0.33401	-0.17628	 0.19392	-0.46566	 0.18401	-0.10584	 0.00684	-0.11929	-0.06835	-0.09409	-0.01685	-0.15495	 0.01643	-0.22294	 0.07316	-0.22983	 0.16120	 0.01702	 0.02777	-0.46335	 0.16871	 0.45343	 0.24436	 0.49427	 0.19798	 3.45307	 1.97492	 0.35628	 0.93538	NULL
   203	 1.23134	 0.66223	 0.84558	 1.24926	 2.04257	 2.44020	 0.48828	 0.41745	-0.18157	 0.20149	-0.50498	 0.18032	-0.13066	 0.00412	-0.14667	-0.07152	-0.12140	-0.02742	-0.17764	 0.00864	-0.23155	 0.07229	-0.25711	 0.14431	 0.01768	 0.06175	-0.46335	 0.16871	 0.49377	 0.25136	 0.56274	 0.23702	 4.44897	 2.62072	 0.29455	 1.23264	NULL
   204	 1.41289	 0.78789	 0.95672	 1.45320	 2.34890	 2.85010	 0.51627	 0.47713	-0.18686	 0.20906	-0.52460	 0.17847	-0.14118	 0.00151	-0.15890	-0.07280	-0.13496	-0.03373	-0.19161	 0.00516	-0.23397	 0.06918	-0.27691	 0.13542	 0.01799	 0.07879	-0.50926	 0.18542	 0.53421	 0.25836	 0.61293	 0.28300	 5.13630	 3.07196	 0.23171	 1.53198	NULL
   205	 1.87623	 1.11011	 1.19621	 1.95151	 3.16264	 3.89718	 0.60983	 0.58414	-0.19746	 0.22422	-0.54420	 0.17662	-0.16214	-0.00375	-0.17605	-0.07643	-0.16377	-0.04569	-0.22329	-0.00309	-0.25358	 0.06435	-0.32132	 0.12468	 0.01887	 0.13001	-0.50926	 0.18542	 0.59448	 0.30249	 0.77661	 0.38531	 6.84711	 4.20019	 0.10249	 2.13715	NULL
   206	 2.16101	 1.30922	 1.31203	 2.23222	 3.62594	 4.52701	 0.65363	 0.66277	-0.21581	 0.23110	-0.55284	 0.18907	-0.16980	-0.00743	-0.18179	-0.07764	-0.17904	-0.05135	-0.23838	-0.00825	-0.26887	 0.05994	-0.32874	 0.11674	 0.01916	 0.14712	-0.56326	 0.26192	 0.64508	 0.32818	 0.85627	 0.47073	 7.83547	 4.85289	 0.03603	 2.44307	NULL
   207	 2.69847	 1.75487	 1.60011	 2.83995	 4.63416	 5.84461	 0.76700	 0.76493	-0.24714	 0.23728	-0.56148	 0.20154	-0.18765	-0.01710	-0.18814	-0.08029	-0.21372	-0.05848	-0.26937	-0.01565	-0.30611	 0.04759	-0.37051	 0.12100	-0.01299	 0.21100	-0.56326	 0.26192	 0.74678	 0.37977	 1.05496	 0.63000	 9.91247	 6.21940	 0.10289	 2.98153	NULL
   208	 2.93026	 1.99481	 1.73687	 3.11265	 5.12695	 6.49550	 0.79534	 0.82655	-0.26014	 0.23657	-0.54189	 0.20340	-0.19601	-0.02270	-0.19177	-0.07976	-0.23020	-0.06235	-0.28171	-0.01968	-0.32563	 0.04277	-0.37051	 0.12100	-0.02922	 0.23439	-0.56326	 0.26192	 0.76674	 0.41736	 1.15189	 0.69513	10.91096	 6.87881	 0.03325	 3.29401	NULL
   209	 3.38609	 2.36912	 1.98668	 3.63897	 5.92397	 7.68310	 0.82038	 0.91372	-0.27555	 0.22004	-0.53959	 0.23023	-0.21103	-0.03340	-0.19320	-0.08007	-0.26447	-0.06632	-0.30620	-0.02464	-0.36272	 0.03043	-0.37540	 0.12802	-0.09474	 0.27632	-0.65492	 0.29529	 0.78668	 0.45510	 1.29841	 0.79372	12.68213	 8.02814	-0.03773	 3.60886	NULL
   210	 3.55864	 2.53501	 2.10998	 3.83849	 6.20987	 8.16607	 0.81364	 0.96435	-0.28326	 0.21179	-0.51997	 0.23211	-0.22044	-0.03750	-0.19542	-0.07924	-0.28102	-0.06818	-0.31785	-0.02626	-0.38407	 0.02829	-0.38030	 0.13505	-0.11130	 0.26520	-0.65492	 0.29529	 0.78668	 0.45510	 1.32801	 0.83395	13.40179	 8.49979	-0.10998	 3.92603	NULL
   211	 3.85525	 2.75964	 2.28511	 4.19888	 6.66839	 8.94572	 0.79104	 0.99652	-0.30918	 0.21037	-0.53732	 0.25713	-0.23855	-0.04375	-0.20414	-0.07847	-0.31519	-0.07215	-0.34054	-0.02869	-0.40777	 0.02303	-0.36553	 0.15099	-0.17680	 0.28979	-0.79185	 0.34514	 0.74554	 0.44792	 1.35429	 0.85849	14.52297	 9.22415	 0.09529	 3.84524	NULL
   212	 3.94598	 2.86218	 2.39606	 4.31152	 6.83130	 9.19038	 0.75268	 1.01008	-0.30391	 0.20283	-0.53732	 0.25713	-0.24618	-0.04741	-0.20920	-0.07825	-0.33449	-0.07365	-0.35111	-0.03018	-0.42244	 0.02441	-0.35815	 0.15897	-0.19328	 0.27868	-0.78337	 0.28521	 0.73560	 0.42905	 1.33473	 0.86561	14.94404	 9.49062	 0.09529	 3.84524	NULL
   213	 4.02497	 3.02247	 2.48477	 4.53665	 7.03065	 9.58668	 0.71784	 0.99823	-0.30918	 0.21037	-0.55693	 0.25524	-0.26352	-0.05177	-0.21996	-0.07925	-0.36951	-0.07990	-0.37321	-0.03177	-0.43282	 0.02620	-0.33844	 0.16788	-0.22593	 0.29094	-0.86567	 0.25856	 0.71571	 0.39143	 1.29562	 0.87984	15.55196	 9.89838	 0.09529	 3.84524	NULL
   214	 4.07062	 3.07501	 2.55923	 4.58812	 7.15092	 9.66173	 0.68305	 0.98640	-0.31447	 0.21793	-0.54826	 0.24273	-0.27151	-0.05203	-0.22646	-0.07932	-0.38489	-0.08150	-0.37944	-0.03111	-0.43707	 0.02577	-0.34336	 0.17494	-0.22593	 0.29094	-0.95605	 0.29147	 0.68469	 0.40307	 1.27609	 0.88695	15.77849	10.05231	 0.09529	 3.84524	NULL
   215	 4.12056	 3.16143	 2.59775	 4.73128	 7.28996	 9.81210	 0.66743	 0.96781	-0.31975	 0.22549	-0.56785	 0.24084	-0.27775	-0.05185	-0.22630	-0.08189	-0.39077	-0.08395	-0.37164	-0.02237	-0.43658	 0.03154	-0.33597	 0.18294	-0.19305	 0.31323	-0.94756	 0.23197	 0.73560	 0.42905	 1.25986	 0.90995	16.17544	10.30948	-0.38879	 4.32638	NULL
   216	 4.16228	 3.18098	 2.63551	 4.79692	 7.35543	 9.86934	 0.68650	 0.96107	-0.31208	 0.23375	-0.59610	 0.25145	-0.27254	-0.05056	-0.21918	-0.08037	-0.37539	-0.08235	-0.35383	-0.01296	-0.41957	 0.03328	-0.32364	 0.18388	-0.14359	 0.34677	-0.94756	 0.23197	 0.76542	 0.48576	 1.25986	 0.90995	16.35219	10.43346	-0.38879	 4.32638	NULL
   217	 4.22923	 3.24428	 2.71120	 4.92938	 7.52649	 9.92873	 0.75953	 0.95935	-0.27843	 0.24344	-0.54826	 0.24273	-0.23855	-0.04375	-0.17683	-0.07531	-0.30085	-0.07081	-0.28315	 0.01080	-0.36739	 0.05001	-0.30884	 0.19991	 0.05539	 0.41194	-0.90248	 0.21556	 0.91948	 0.56468	 1.30555	 0.92753	16.71042	10.67935	-0.38879	 4.32638	NULL
   218	 4.29230	 3.27392	 2.77415	 4.96056	 7.59300	 9.98675	 0.81364	 0.96435	-0.24473	 0.25314	-0.52864	 0.24462	-0.21419	-0.03765	-0.14602	-0.07008	-0.24647	-0.06103	-0.23862	 0.02397	-0.32840	 0.05969	-0.28906	 0.20886	 0.15610	 0.47993	-0.85732	 0.19912	 1.02306	 0.61768	 1.32845	 0.93635	16.88445	10.80420	-0.10998	 3.92603	NULL
   219	 4.41919	 3.33351	 2.79975	 5.08593	 7.68686	10.16108	 0.90309	 0.98110	-0.17178	 0.26496	-0.46965	 0.25025	-0.15565	-0.02475	-0.07779	-0.05699	-0.12332	-0.03928	-0.14892	 0.04654	-0.23104	 0.07811	-0.24453	 0.21973	 0.41011	 0.56263	-0.72959	 0.20902	 1.21182	 0.68575	 1.39400	 0.94683	17.23194	11.05127	 0.09529	 3.84524	NULL
   220	 4.44467	 3.37785	 2.82510	 5.13107	 7.75394	10.22058	 0.93833	 0.99289	-0.13784	 0.27467	-0.42149	 0.24145	-0.12943	-0.01820	-0.04755	-0.05064	-0.06790	-0.02837	-0.11233	 0.05474	-0.19173	 0.08779	-0.21975	 0.22161	 0.49583	 0.60228	-0.63851	 0.17586	 1.27482	 0.73207	 1.43673	 0.94848	17.40321	11.16882	 0.09529	 3.84524	NULL
   221	 4.53422	 3.45266	 2.86318	 5.19910	 7.93878	10.32203	 0.95430	 1.01154	-0.09071	 0.28508	-0.38195	 0.24517	-0.08743	-0.00773	-0.00585	-0.03928	 0.01550	-0.01097	-0.06344	 0.06232	-0.13260	 0.10235	-0.16511	 0.21824	 0.61670	 0.66533	-0.55513	 0.20212	 1.37047	 0.76646	 1.48629	 0.98218	17.71199	11.41678	 0.50722	 3.68311	NULL
   222	 4.59856	 3.48302	 2.88858	 5.24470	 7.96593	10.44130	 0.97365	 1.00469	-0.08292	 0.29343	-0.39066	 0.25773	-0.07234	-0.00573	 0.00859	-0.03624	 0.04113	-0.00502	-0.05108	 0.06324	-0.11093	 0.10450	-0.15266	 0.21918	 0.63406	 0.67696	-0.56326	 0.26192	 1.41330	 0.77390	 1.50945	 0.99103	17.86713	11.54571	 0.22841	 4.08346	NULL
   223	 4.66738	 3.54850	 2.92672	 5.31345	 8.10268	10.56439	 0.95430	 1.01154	-0.05661	 0.29482	-0.39066	 0.25773	-0.05654	-0.00180	 0.02145	-0.03091	 0.06568	 0.00068	-0.04111	 0.06077	-0.09549	 0.10892	-0.12775	 0.22103	 0.63424	 0.69507	-0.61746	 0.33872	 1.42372	 0.79353	 1.55587	 1.00877	18.16529	11.83314	 0.15445	 4.40507	NULL
   224	 4.65415	 3.60852	 2.95217	 5.35953	 8.17147	10.62657	 0.95430	 1.01154	-0.05661	 0.29482	-0.41916	 0.26843	-0.05303	-0.00093	 0.02357	-0.02917	 0.06965	 0.00058	-0.04277	 0.05977	-0.09115	 0.10935	-0.11031	 0.21484	 0.61702	 0.70153	-0.61746	 0.33872	 1.42372	 0.79353	 1.55924	 1.02489	18.31094	11.98794	 0.15445	 4.40507	NULL
   225	 4.76238	 3.66014	 3.00315	 5.45223	 8.27643	10.85441	 0.97701	 0.97921	-0.05661	 0.29482	-0.39066	 0.25773	-0.05231	 0.00100	 0.02856	-0.02682	 0.06931	-0.00264	-0.04676	 0.05535	-0.09358	 0.10622	-0.11031	 0.21484	 0.56545	 0.72089	-0.70912	 0.37209	 1.44580	 0.76170	 1.58251	 1.03379	18.63478	12.28780	 0.15445	 4.40507	NULL
   226	 4.78829	 3.70604	 3.02868	 5.49887	 8.39768	10.89908	 0.97701	 0.97921	-0.05661	 0.29482	-0.39066	 0.25773	-0.05231	 0.00100	 0.03065	-0.02506	 0.06548	-0.00456	-0.04958	 0.05261	-0.09167	 0.10351	-0.11031	 0.21484	 0.56533	 0.70276	-0.70912	 0.37209	 1.44580	 0.76170	 1.56599	 1.05720	18.79771	12.43037	-0.12803	 4.81069	NULL
   227	 4.87975	 3.78359	 3.05349	 5.63016	 8.50331	11.13337	 0.95767	 0.98605	-0.05661	 0.29482	-0.37087	 0.25960	-0.05128	-0.00048	 0.03277	-0.02332	 0.05258	-0.00653	-0.05791	 0.04762	-0.09653	 0.09724	-0.11031	 0.21484	 0.53078	 0.67946	-0.80049	 0.40535	 1.42489	 0.72256	 1.56599	 1.05720	19.09770	12.69130	 0.07913	 4.72915	NULL
   228	 4.90579	 3.83008	 3.07898	 5.67753	 8.58243	11.24260	 0.93833	 0.99289	-0.05661	 0.29482	-0.34232	 0.24889	-0.05128	-0.00048	 0.03566	-0.02270	 0.04524	-0.00718	-0.06074	 0.04491	-0.09896	 0.09411	-0.09288	 0.20864	 0.53063	 0.66141	-0.74628	 0.32855	 1.39247	 0.73473	 1.56599	 1.05720	19.24030	12.79283	 0.07913	 4.72915	NULL
   229	 4.99377	 3.87242	 3.15656	 5.73506	 8.67920	11.44081	 0.89632	 1.03204	-0.03809	 0.28786	-0.32247	 0.25074	-0.04848	-0.00153	 0.04000	-0.02179	 0.03410	-0.00977	-0.06462	 0.04205	-0.10331	 0.09369	-0.09288	 0.20864	 0.53048	 0.64338	-0.79185	 0.34514	 1.40400	 0.68358	 1.56599	 1.05720	19.46273	12.94719	 0.00246	 5.05568	NULL
   230	 5.01584	 3.88303	 3.14277	 5.79684	 8.74145	11.46481	 0.87701	 1.03887	-0.02492	 0.28855	-0.32247	 0.25074	-0.04569	-0.00258	 0.04289	-0.02118	 0.03027	-0.01169	-0.06570	 0.04190	-0.10331	 0.09369	-0.09288	 0.20864	 0.53048	 0.64338	-0.73785	 0.26864	 1.37164	 0.69572	 1.58251	 1.03379	19.54231	12.99967	 0.00246	 5.05568	NULL
   231	 5.04207	 3.93004	 3.20784	 5.83095	 8.81269	11.53325	 0.88043	 1.01337	-0.01173	 0.28924	-0.33120	 0.26332	-0.04113	-0.00320	 0.04869	-0.01997	 0.02644	-0.01362	-0.06354	 0.04218	-0.10087	 0.09681	-0.08039	 0.20957	 0.53048	 0.64338	-0.78337	 0.28521	 1.39355	 0.66414	 1.59901	 1.01041	19.64802	13.06524	 0.07913	 4.72915	NULL
   232	 5.08225	 3.91496	 3.22069	 5.85504	 8.82137	11.57782	 0.88043	 1.01337	-0.01173	 0.28924	-0.31132	 0.26518	-0.03938	-0.00275	 0.05157	-0.01936	 0.02707	-0.01452	-0.06299	 0.04306	-0.09653	 0.09724	-0.08534	 0.21669	 0.54759	 0.63696	-0.78337	 0.28521	 1.36124	 0.67626	 1.59901	 1.01041	19.67918	13.07910	 0.07913	 4.72915	NULL
   233	 5.10444	 3.92563	 3.23352	 5.87920	 8.82137	11.57782	 0.86115	 1.02019	 0.02003	 0.28297	-0.32007	 0.27778	-0.03479	-0.00339	 0.05595	-0.01846	 0.02947	-0.01605	-0.05986	 0.04195	-0.09219	 0.09767	-0.06789	 0.21049	 0.54741	 0.61897	-0.78337	 0.28521	 1.35084	 0.65685	 1.59560	 0.99430	19.69492	13.08158	 0.36161	 4.32354	NULL
   234	 5.06422	 3.94073	 3.23352	 5.87920	 8.82137	11.57782	 0.86454	 0.99474	 0.02003	 0.28297	-0.29144	 0.26704	-0.03376	-0.00486	 0.05515	-0.01731	 0.02770	-0.01541	-0.06152	 0.04095	-0.08595	 0.09540	-0.06789	 0.21049	 0.54722	 0.60101	-0.78337	 0.28521	 1.30822	 0.64956	 1.59218	 0.97822	19.68473	13.07110	 0.36161	 4.32354	NULL
   235	 5.08225	 3.91496	 3.22069	 5.85504	 8.81269	11.53325	 0.82947	 0.98293	 0.03324	 0.28365	-0.30018	 0.27964	-0.03730	-0.00572	 0.04919	-0.01592	 0.02039	-0.01607	-0.06970	 0.03749	-0.09029	 0.09497	-0.06789	 0.21049	 0.51289	 0.59588	-0.77501	 0.22556	 1.28748	 0.61089	 1.54909	 0.97660	19.63065	13.03150	 0.15445	 4.40507	NULL
   236	 5.06007	 3.90431	 3.18108	 5.86905	 8.81269	11.53325	 0.81026	 0.98972	 0.03324	 0.28365	-0.30018	 0.27964	-0.03801	-0.00767	 0.04405	-0.01569	 0.01371	-0.01763	-0.07625	 0.03505	-0.09462	 0.09454	-0.06789	 0.21049	 0.47862	 0.59075	-0.82038	 0.24207	 1.25538	 0.62295	 1.54569	 0.96055	19.58940	13.00722	-0.05223	 4.48642	NULL
   237	 5.03793	 3.89368	 3.12881	 5.85890	 8.80396	11.48886	 0.75612	 0.98470	 0.03324	 0.28365	-0.29144	 0.26704	-0.04959	-0.00879	 0.02864	-0.01498	-0.00818	-0.01962	-0.09252	 0.02969	-0.10763	 0.09325	-0.08039	 0.20957	 0.44424	 0.56774	-0.85732	 0.19912	 1.20273	 0.59640	 1.50270	 0.95894	19.51001	12.94593	 0.02217	 4.16463	NULL
   238	 4.99789	 3.90871	 3.15553	 5.82086	 8.75014	11.50906	 0.75953	 0.95935	 0.01467	 0.29062	-0.29144	 0.26704	-0.05485	-0.01011	 0.02061	-0.01536	-0.01864	-0.02311	-0.10277	 0.02750	-0.11631	 0.09240	-0.08039	 0.20957	 0.41011	 0.56263	-0.84912	 0.13997	 1.17077	 0.60840	 1.48292	 0.96613	19.46632	12.91694	 0.02217	 4.16463	NULL
   239	 4.97584	 3.89805	 3.11609	 5.83481	 8.74145	11.46481	 0.74380	 0.94080	 0.01467	 0.29062	-0.31132	 0.26518	-0.07202	-0.00913	 0.00311	-0.01642	-0.04766	-0.02779	-0.12491	 0.02215	-0.13363	 0.09068	-0.10536	 0.20772	 0.35898	 0.54603	-0.93922	 0.17277	 1.12863	 0.60112	 1.45981	 0.95730	19.39235	12.85667	 0.02217	 4.16463	NULL
   240	 4.95382	 3.88741	 3.10338	 5.81077	 8.74145	11.46481	 0.70559	 0.95432	 0.01467	 0.29062	-0.31132	 0.26518	-0.08392	-0.00686	-0.00636	-0.01709	-0.06142	-0.03205	-0.13568	 0.01909	-0.14229	 0.08982	-0.11785	 0.20681	 0.34194	 0.53457	-0.98417	 0.18913	 1.11841	 0.58189	 1.47618	 0.93412	19.35129	12.83251	 0.02217	 4.16463	NULL
   241	 4.93184	 3.87679	 3.06405	 5.82468	 8.73274	11.42071	 0.68992	 0.93580	 0.00147	 0.28993	-0.33993	 0.27592	-0.09898	-0.00886	-0.02223	-0.02044	-0.09178	-0.04019	-0.16039	 0.01414	-0.16392	 0.08768	-0.14276	 0.20496	 0.30801	 0.52947	-0.98417	 0.18913	 1.07640	 0.57463	 1.45307	 0.92532	19.28479	12.78685	 0.02217	 4.16463	NULL
   242	 4.93184	 3.87679	 3.09067	 5.78679	 8.73274	11.42071	 0.69331	 0.91057	 0.00147	 0.28993	-0.33993	 0.27592	-0.10980	-0.00809	-0.03168	-0.02113	-0.10773	-0.04495	-0.17378	 0.01149	-0.17879	 0.08908	-0.15521	 0.20404	 0.29101	 0.51804	-1.02904	 0.20547	 1.06621	 0.55547	 1.43337	 0.93250	19.25944	12.76523	 0.02217	 4.16463	NULL
   243	 4.94972	 3.85122	 3.05139	 5.80068	 8.67920	11.44081	 0.65524	 0.92404	-0.03026	 0.29620	-0.36851	 0.28664	-0.12659	-0.01054	-0.04756	-0.02445	-0.13736	-0.05399	-0.19843	 0.00653	-0.20037	 0.08694	-0.18007	 0.20217	 0.25707	 0.49522	-1.02904	 0.20547	 1.04584	 0.51725	 1.41032	 0.92371	19.20567	12.73473	 0.22841	 4.08346	NULL
   244	 4.94972	 3.85122	 3.07796	 5.76286	 8.72397	11.37679	 0.63962	 0.90558	-0.04344	 0.29551	-0.39705	 0.29736	-0.13357	-0.01228	-0.05472	-0.02600	-0.15218	-0.05848	-0.20917	 0.00349	-0.20710	 0.08338	-0.19250	 0.20125	 0.25691	 0.47753	-1.07385	 0.22178	 1.03566	 0.49818	 1.40697	 0.90776	19.17204	12.72505	 0.02217	 4.16463	NULL
   245	 4.94972	 3.85122	 3.07796	 5.76286	 8.67054	11.39685	 0.62402	 0.88714	-0.05126	 0.28717	-0.40811	 0.28289	-0.14930	-0.01621	-0.06915	-0.02903	-0.18299	-0.06571	-0.23066	-0.00256	-0.23294	 0.08079	-0.20492	 0.20032	 0.22305	 0.45480	-1.11011	 0.17903	 1.00510	 0.44122	 1.36769	 0.92206	19.13391	12.69706	-0.18353	 4.24559	NULL
   246	 4.94972	 3.85122	 3.03873	 5.77673	 8.71516	11.33304	 0.60505	 0.89386	-0.06443	 0.28649	-0.43661	 0.29359	-0.15631	-0.01795	-0.07633	-0.03056	-0.20012	-0.06870	-0.24293	-0.00506	-0.24585	 0.07949	-0.21732	 0.19938	 0.18939	 0.44975	-1.11011	 0.17903	 0.97360	 0.45305	 1.36435	 0.90613	19.10803	12.69295	 0.09529	 3.84524	NULL
   247	 4.96758	 3.82569	 3.03873	 5.77673	 8.67054	11.39685	 0.57055	 0.88214	-0.07757	 0.28578	-0.44761	 0.27911	-0.17201	-0.02189	-0.09296	-0.03274	-0.23320	-0.07441	-0.26438	-0.01111	-0.27354	 0.07959	-0.22478	 0.19136	 0.15568	 0.42710	-1.14629	 0.13645	 0.95331	 0.41523	 1.32515	 0.92040	19.08522	12.67620	-0.10998	 3.92603	NULL
   248	 4.92774	 3.84064	 3.03873	 5.77673	 8.61719	11.41687	 0.57395	 0.85706	-0.09071	 0.28508	-0.47604	 0.28979	-0.17898	-0.02363	-0.10236	-0.03343	-0.24851	-0.07804	-0.27663	-0.01359	-0.28024	 0.07604	-0.23716	 0.19043	 0.13884	 0.41580	-1.19076	 0.15264	 0.94317	 0.39636	 1.32181	 0.90450	19.06967	12.67374	-0.10998	 3.92603	NULL
   249	 4.92774	 3.84064	 3.03873	 5.77673	 8.61719	11.41687	 0.51725	 0.87711	-0.12229	 0.29132	-0.49575	 0.28789	-0.19468	-0.02754	-0.11896	-0.03563	-0.28431	-0.08339	-0.30063	-0.01926	-0.30598	 0.07345	-0.26192	 0.18857	 0.08861	 0.39947	-1.18242	 0.09409	 0.87039	 0.40105	 1.29894	 0.89572	19.05173	12.66650	-0.10998	 3.92603	NULL
   250	 4.92774	 3.84064	 3.03873	 5.77673	 8.61719	11.41687	 0.52066	 0.85206	-0.13540	 0.29061	-0.48705	 0.27534	-0.20059	-0.03078	-0.12690	-0.03602	-0.30352	-0.08689	-0.31343	-0.02259	-0.31885	 0.07215	-0.26935	 0.18056	 0.05539	 0.41194	-1.18242	 0.09409	 0.83913	 0.41279	 1.29894	 0.89572	19.04413	12.66092	-0.10998	 3.92603	NULL
   251	 4.92774	 3.84064	 2.99956	 5.79059	 8.66181	11.35307	 0.46410	 0.87207	-0.14850	 0.28991	-0.51542	 0.28599	-0.21626	-0.03470	-0.14347	-0.03823	-0.34402	-0.09442	-0.33845	-0.02838	-0.34265	 0.06687	-0.28171	 0.17962	 0.02195	 0.38940	-1.27950	 0.18495	 0.79790	 0.40566	 1.27609	 0.88695	19.01098	12.64251	 0.09529	 3.84524	NULL
   252	 4.88796	 3.85558	 3.02609	 5.75283	 8.60857	11.37306	 0.46753	 0.84706	-0.16692	 0.29683	-0.53507	 0.28409	-0.22496	-0.03688	-0.15206	-0.04006	-0.36421	-0.09819	-0.35159	-0.02949	-0.35547	 0.06557	-0.27678	 0.17255	-0.01115	 0.40183	-1.32376	 0.20106	 0.78789	 0.38687	 1.25656	 0.89406	18.98539	12.62976	-0.18353	 4.24559	NULL
   253	 4.90579	 3.83008	 3.02609	 5.75283	 8.59990	11.32940	 0.42991	 0.86036	-0.18000	 0.29611	-0.55470	 0.28218	-0.23815	-0.03846	-0.16796	-0.04082	-0.39309	-0.10402	-0.36459	-0.02749	-0.37257	 0.06382	-0.29406	 0.17869	-0.02779	 0.39056	-1.31523	 0.14244	 0.77788	 0.36809	 1.23378	 0.88530	18.92441	12.59382	-0.38879	 4.32638	NULL
   254	 4.86607	 3.84499	 3.05256	 5.71514	 8.59990	11.32940	 0.44871	 0.85371	-0.18000	 0.29611	-0.55470	 0.28218	-0.24091	-0.03742	-0.17158	-0.04031	-0.39416	-0.10429	-0.35801	-0.02197	-0.36830	 0.06426	-0.31623	 0.19189	 0.00528	 0.37815	-1.31523	 0.14244	 0.75675	 0.39855	 1.24996	 0.86237	18.89127	12.57551	-0.31475	 4.00663	NULL
   255	 4.88388	 3.81952	 3.06525	 5.73898	 8.59119	11.28591	 0.49837	 0.88379	-0.16692	 0.29683	-0.53507	 0.28409	-0.22355	-0.03305	-0.14998	-0.03831	-0.34633	-0.10013	-0.30912	-0.00205	-0.33976	 0.07578	-0.29648	 0.20084	 0.12218	 0.42205	-1.27102	 0.12634	 0.83913	 0.41279	 1.23048	 0.86946	18.83063	12.53105	-0.51904	 4.08703	NULL
   256	 4.88388	 3.81952	 3.10448	 5.72510	 8.59119	11.28591	 0.55164	 0.88882	-0.15917	 0.30516	-0.49575	 0.28789	-0.20718	-0.02722	-0.12547	-0.03571	-0.29682	-0.09458	-0.26789	 0.01066	-0.30927	 0.08462	-0.27671	 0.20981	 0.20645	 0.47874	-1.23516	 0.16881	 0.90062	 0.45770	 1.24996	 0.86237	18.81342	12.50652	-0.51904	 4.08703	NULL
   257	 4.88388	 3.81952	 3.15656	 5.73506	 8.64424	11.26600	 0.65862	 0.89885	-0.09895	 0.31635	-0.39705	 0.29736	-0.15002	-0.01813	-0.06130	-0.02606	-0.17408	-0.07291	-0.17235	 0.03635	-0.21799	 0.10536	-0.21480	 0.21450	 0.44405	 0.54989	-1.11011	 0.17903	 1.04584	 0.51725	 1.30848	 0.84106	18.78334	12.47576	-0.51904	 4.08703	NULL
   258	 4.90166	 3.79410	 3.16938	 5.75895	 8.59990	11.32940	 0.71238	 0.90383	-0.07801	 0.32541	-0.36617	 0.31375	-0.11926	-0.01219	-0.02736	-0.02020	-0.10937	-0.06088	-0.12508	 0.04602	-0.16809	 0.11326	-0.17754	 0.21731	 0.52995	 0.58948	-1.02069	 0.14647	 1.09796	 0.54355	 1.31183	 0.85688	18.77335	12.46550	-0.31475	 4.00663	NULL
   259	 4.90166	 3.79410	 3.20882	 5.74500	 8.65305	11.30945	 0.76293	 0.93404	 0.01430	 0.33033	-0.27549	 0.33583	-0.06739	-0.00102	 0.02692	-0.01010	-0.00176	-0.03788	-0.05294	 0.05913	-0.08332	 0.12460	-0.11528	 0.22196	 0.68529	 0.62145	-0.93922	 0.17277	 1.21406	 0.54598	 1.37388	 0.85135	18.76579	12.45994	-0.31475	 4.00663	NULL
   260	 4.90166	 3.79410	 3.20882	 5.74500	 8.60857	11.37306	 0.78207	 0.92727	 0.05400	 0.33241	-0.21557	 0.34148	-0.04705	 0.00231	 0.04575	-0.00615	 0.03606	-0.02908	-0.02875	 0.06169	-0.04663	 0.12533	-0.09526	 0.23094	 0.72022	 0.64461	-0.90248	 0.21556	 1.22438	 0.56517	 1.39348	 0.84422	18.77091	12.46079	-0.31475	 4.00663	NULL
   261	 4.90166	 3.79410	 3.22169	 5.76893	 8.66181	11.35307	 0.78207	 0.92727	 0.11499	 0.34356	-0.15542	 0.34710	-0.02034	 0.00545	 0.06606	-0.00189	 0.08294	-0.01824	-0.00346	 0.06441	-0.00739	 0.12919	-0.04026	 0.22750	 0.73771	 0.65622	-0.91089	 0.27502	 1.25637	 0.55316	 1.37725	 0.86721	18.77067	12.46936	-0.10998	 3.92603	NULL
   262	 4.91942	 3.76870	 3.22169	 5.76893	 8.66181	11.35307	 0.78207	 0.92727	 0.14161	 0.34493	-0.14416	 0.36170	-0.01609	 0.00825	 0.07266	-0.00183	 0.09583	-0.01628	 0.00244	 0.06444	 0.00761	 0.12776	-0.03270	 0.23556	 0.73771	 0.65622	-0.91089	 0.27502	 1.24601	 0.53398	 1.39348	 0.84422	18.76282	12.47245	-0.10998	 3.92603	NULL
   263	 4.91942	 3.76870	 3.22169	 5.76893	 8.66181	11.35307	 0.76293	 0.93404	 0.17620	 0.35470	-0.11276	 0.37820	-0.01008	 0.01148	 0.07846	-0.00062	 0.10479	-0.01422	 0.00517	 0.06560	 0.02263	 0.12633	-0.00762	 0.23741	 0.73749	 0.63813	-0.86567	 0.25856	 1.20372	 0.52683	 1.37050	 0.83552	18.73265	12.45026	 0.09529	 3.84524	NULL
   264	 4.87975	 3.78359	 3.22169	 5.76893	 8.66181	11.35307	 0.76293	 0.93404	 0.18956	 0.35538	-0.12161	 0.39097	-0.00657	 0.01235	 0.07990	-0.00030	 0.10656	-0.01487	 0.00674	 0.06504	 0.02263	 0.12633	-0.00762	 0.23741	 0.71999	 0.62655	-0.85732	 0.19912	 1.19340	 0.50772	 1.36712	 0.81971	18.71018	12.42509	 0.37230	 3.44748	NULL
   265	 4.85787	 3.77310	 3.18220	 5.78289	 8.59990	11.32940	 0.76629	 0.90879	 0.19751	 0.36380	-0.10147	 0.39286	-0.00304	 0.01323	 0.08361	-0.00084	 0.10321	-0.01564	 0.00665	 0.06348	 0.02263	 0.12633	 0.00493	 0.23833	 0.70226	 0.59698	-0.80396	 0.12353	 1.16242	 0.45060	 1.34080	 0.79527	18.62479	12.35956	 0.16704	 3.52826	NULL
   266	 4.83602	 3.76261	 3.18220	 5.78289	 8.59119	11.28591	 0.74717	 0.91555	 0.21088	 0.36448	-0.07243	 0.38196	-0.00304	 0.01323	 0.08361	-0.00084	 0.10045	-0.01729	 0.00499	 0.06248	 0.02263	 0.12633	 0.00493	 0.23833	 0.70201	 0.57899	-0.80396	 0.12353	 1.12040	 0.44352	 1.33741	 0.77953	18.56929	12.32486	 0.44231	 3.13301	NULL
   267	 4.83188	 3.72687	 3.16938	 5.75895	 8.58243	11.24260	 0.77295	 0.85841	 0.21884	 0.37290	-0.05224	 0.38383	 0.00080	 0.01069	 0.08215	-0.00114	 0.09328	-0.02001	 0.00478	 0.05936	 0.01825	 0.12590	 0.02248	 0.23210	 0.68428	 0.54955	-0.84912	 0.13997	 1.06822	 0.41753	 1.33062	 0.74810	18.46670	12.24392	 0.23753	 3.21361	NULL
   268	 4.81007	 3.71644	 3.16938	 5.75895	 8.57362	11.19945	 0.75387	 0.86516	 0.23222	 0.37359	-0.03201	 0.38569	 0.00185	 0.00919	 0.07990	-0.00030	 0.09119	-0.02257	 0.00420	 0.05849	 0.01825	 0.12590	 0.04004	 0.22586	 0.68400	 0.53164	-0.84912	 0.13997	 1.08954	 0.38678	 1.32722	 0.73241	18.40901	12.20466	 0.23753	 3.21361	NULL
   269	 4.76654	 3.69563	 3.15656	 5.73506	 8.51210	11.17623	 0.75718	 0.84005	 0.24020	 0.38201	-0.01177	 0.38756	-0.00199	 0.01174	 0.08071	-0.00146	 0.08685	-0.02565	 0.00527	 0.05865	 0.02072	 0.12904	 0.03506	 0.23301	 0.68400	 0.53164	-0.84912	 0.13997	 1.05796	 0.39864	 1.30435	 0.72383	18.30166	12.12327	-0.03773	 3.60886	NULL
   270	 4.78413	 3.67049	 3.18309	 5.69730	 8.45953	11.19597	 0.73812	 0.84679	 0.24020	 0.38201	 0.00850	 0.38943	 0.00080	 0.01069	 0.08071	-0.00146	 0.08637	-0.02680	 0.00794	 0.05823	 0.02508	 0.12947	 0.03506	 0.23301	 0.66711	 0.55600	-0.84912	 0.13997	 1.05796	 0.39864	 1.30435	 0.72383	18.24417	12.08423	-0.03773	 3.60886	NULL
   271	 4.74068	 3.64979	 3.17024	 5.67352	 8.49446	11.09068	 0.73812	 0.84679	 0.24818	 0.39045	-0.00039	 0.40225	 0.00255	 0.01114	 0.08071	-0.00146	 0.08652	-0.02885	 0.01058	 0.05783	 0.03191	 0.13304	 0.04764	 0.23393	 0.68428	 0.54955	-0.84912	 0.13997	 1.04770	 0.37979	 1.28150	 0.71527	18.13479	11.99856	-0.03773	 3.60886	NULL
   272	 4.74068	 3.64979	 3.17024	 5.67352	 8.44208	11.11034	 0.74144	 0.82169	 0.24818	 0.39045	-0.00039	 0.40225	-0.00024	 0.01219	 0.07846	-0.00062	 0.08538	-0.02910	 0.00951	 0.05768	 0.03627	 0.13348	 0.04764	 0.23393	 0.66737	 0.57394	-0.84912	 0.13997	 1.04770	 0.37979	 1.26209	 0.72234	18.07014	11.95420	-0.24202	 3.68926	NULL
   273	 4.69736	 3.62913	 3.15738	 5.64980	 8.38107	11.08737	 0.72240	 0.82843	 0.26160	 0.39112	-0.00039	 0.40225	-0.00374	 0.01129	 0.07040	-0.00098	 0.08269	-0.03078	 0.00508	 0.05553	 0.04065	 0.13390	 0.04764	 0.23393	 0.68428	 0.54955	-0.84912	 0.13997	 1.02722	 0.34218	 1.25532	 0.69110	17.91868	11.84950	-0.24202	 3.68926	NULL
   274	 4.69319	 3.59387	 3.11815	 5.66368	 8.37233	11.04492	 0.70336	 0.83516	 0.25618	 0.39889	-0.00039	 0.40225	-0.00729	 0.01043	 0.06460	-0.00219	 0.07997	-0.03244	 0.00178	 0.05351	 0.04694	 0.13161	 0.04764	 0.23393	 0.66711	 0.55600	-0.84912	 0.13997	 1.01698	 0.32342	 1.25192	 0.67551	17.81194	11.78601	-0.24202	 3.68926	NULL
   275	 4.64581	 3.53829	 3.09257	 5.61634	 8.30288	10.97997	 0.66869	 0.82355	 0.26959	 0.39958	 0.03768	 0.37847	-0.02171	 0.01036	 0.04641	-0.00471	 0.06718	-0.03643	-0.01078	 0.04947	 0.04256	 0.13119	 0.04764	 0.23393	 0.63231	 0.53306	-0.84105	 0.08107	 0.96516	 0.29778	 1.20644	 0.65848	17.54392	11.57920	 0.03325	 3.29401	NULL
   276	 4.62006	 3.49316	 3.04076	 5.60655	 8.28529	10.89611	 0.65303	 0.80524	 0.26959	 0.39958	 0.03768	 0.37847	-0.02697	 0.00904	 0.03481	-0.00713	 0.05892	-0.03940	-0.01844	 0.04688	 0.03191	 0.13304	 0.04266	 0.24108	 0.63176	 0.49735	-0.88606	 0.09746	 0.92368	 0.29086	 1.19967	 0.62744	17.34816	11.43096	-0.17060	 3.37424	NULL
   277	 4.44886	 3.41233	 2.97716	 5.48923	 8.08751	10.74662	 0.59955	 0.80036	 0.26959	 0.39958	 0.01738	 0.37662	-0.04032	 0.00747	 0.00875	-0.01260	 0.03377	-0.04418	-0.03419	 0.04238	 0.02072	 0.12904	 0.03008	 0.24016	 0.57998	 0.48095	-0.97589	 0.13016	 0.83095	 0.25840	 1.12835	 0.58662	16.80519	10.98906	 0.10289	 2.98153	NULL
   278	 4.32168	 3.35219	 2.92637	 5.39626	 7.99274	10.56186	 0.58730	 0.75720	 0.25075	 0.40665	-0.00289	 0.37476	-0.04561	 0.00616	-0.00425	-0.01535	 0.01866	-0.04664	-0.04182	 0.03978	 0.01389	 0.12547	 0.03008	 0.24016	 0.56236	 0.45182	-0.92293	 0.05514	 0.77976	 0.23294	 1.07986	 0.55438	16.44768	10.69176	-0.10047	 3.06157	NULL
   279	 4.08307	 3.17550	 2.85049	 5.17637	 7.59779	10.23680	 0.52186	 0.70937	 0.23733	 0.40596	-0.04338	 0.37105	-0.05895	 0.00459	-0.02895	-0.01791	-0.01611	-0.05053	-0.05808	 0.03601	-0.00356	 0.12376	 0.01750	 0.23924	 0.51052	 0.41784	-1.01248	 0.08774	 0.67788	 0.18224	 0.96099	 0.48193	15.55448	 9.98612	-0.30334	 3.14142	NULL
   280	 3.93420	 3.07393	 2.78709	 5.06342	 7.39079	10.02111	 0.46887	 0.70453	 0.22394	 0.40526	-0.06357	 0.36918	-0.06805	 0.00582	-0.03917	-0.01747	-0.03338	-0.05351	-0.06666	 0.03482	-0.00792	 0.12333	 0.00493	 0.23833	 0.49269	 0.37128	-0.95974	 0.01302	 0.64788	 0.12716	 0.90967	 0.43489	15.03616	 9.59072	-0.23404	 2.83086	NULL
   281	 3.65273	 2.81869	 2.67281	 4.78373	 6.95764	 9.49486	 0.40723	 0.63236	 0.21055	 0.40457	-0.10391	 0.36545	-0.08449	 0.00869	-0.06491	-0.01372	-0.06674	-0.05923	-0.07849	 0.03318	-0.02294	 0.12477	 0.00991	 0.23118	 0.44044	 0.30257	-0.99647	-0.02892	 0.52705	 0.04071	 0.74791	 0.34700	13.83655	 8.72468	-0.36743	 2.60187	NULL
   282	 3.46790	 2.70254	 2.59704	 4.65294	 6.73128	 9.18935	 0.35791	 0.60303	 0.21055	 0.40457	-0.12405	 0.36358	-0.09287	 0.01184	-0.08104	-0.01189	-0.08572	-0.06156	-0.08425	 0.03470	-0.03356	 0.12662	 0.00991	 0.23118	 0.42260	 0.25653	-0.98866	-0.08687	 0.45710	-0.02024	 0.69065	 0.27081	13.15296	 8.25191	-0.30009	 2.29560	NULL
   283	 3.14706	 2.37735	 2.45749	 4.34075	 6.16261	 8.50628	 0.25978	 0.54462	 0.19718	 0.40388	-0.15300	 0.37445	-0.10262	 0.01988	-0.12552	-0.00955	-0.12466	-0.06652	-0.08973	 0.04089	-0.04365	 0.13432	 0.02746	 0.22495	 0.37012	 0.17133	-0.98099	-0.14455	 0.31811	-0.14094	 0.51794	 0.12567	11.66788	 7.27185	 0.03108	 1.61095	NULL
   284	 2.94470	 2.22751	 2.36965	 4.19419	 5.87549	 8.15053	 0.21096	 0.51553	 0.18382	 0.40317	-0.16184	 0.38719	-0.10782	 0.02732	-0.15461	-0.00792	-0.14516	-0.07026	-0.08998	 0.04628	-0.04748	 0.13975	 0.02746	 0.22495	 0.33595	 0.14935	-0.97345	-0.20198	 0.21928	-0.18951	 0.42148	 0.05002	10.90450	 6.78547	 0.09440	 1.31142	NULL
   285	 2.61474	 1.91000	 2.19495	 3.90676	 5.33567	 7.40225	 0.13210	 0.45115	 0.18382	 0.40317	-0.14820	 0.42931	-0.11368	 0.04159	-0.22571	-0.00483	-0.18932	-0.07855	-0.08492	 0.05934	-0.03965	 0.15506	 0.01750	 0.23924	 0.30068	 0.07596	-0.92170	-0.27529	 0.10218	-0.33649	 0.23028	-0.09941	 9.40825	 5.86804	 0.15658	 1.01398	NULL
   286	 2.43764	 1.77602	 2.14329	 3.75336	 5.09000	 7.04132	 0.08049	 0.44641	 0.18382	 0.40317	-0.13696	 0.44403	-0.11888	 0.04903	-0.26323	-0.00506	-0.21190	-0.08283	-0.08073	 0.06688	-0.03232	 0.16451	 0.01750	 0.23924	 0.28325	 0.04798	-0.92170	-0.27529	 0.01439	-0.36663	 0.13880	-0.15897	 8.69912	 5.45249	 0.41685	 0.64026	NULL
   287	 2.15829	 1.51789	 2.02936	 3.50374	 4.61469	 6.38373	 0.03866	 0.36961	 0.15170	 0.40952	-0.12336	 0.48638	-0.13176	 0.06156	-0.33787	-0.00814	-0.25979	-0.09100	-0.07408	 0.08099	-0.01769	 0.18345	-0.00004	 0.24548	 0.26540	 0.00307	-0.92170	-0.27529	-0.10161	-0.44846	-0.00393	-0.27572	 7.45130	 4.71324	 0.27754	 0.42540	NULL
   288	 2.04059	 1.41345	 1.98969	 3.37484	 4.36632	 6.14967	 0.00553	 0.35851	 0.13835	 0.40883	-0.14120	 0.51211	-0.14115	 0.06617	-0.36997	-0.01120	-0.28402	-0.09465	-0.07582	 0.08691	-0.00650	 0.18747	-0.00004	 0.24548	 0.26451	-0.03091	-0.92170	-0.27529	-0.14975	-0.47194	-0.05556	-0.33295	 6.91573	 4.40779	 0.53472	 0.05613	NULL
   289	 1.84765	 1.25120	 1.89082	 3.22128	 4.01417	 5.73330	-0.04244	 0.32996	 0.11713	 0.39968	-0.15013	 0.52498	-0.16561	 0.06876	-0.42818	-0.01867	-0.33173	-0.10282	-0.09005	 0.09038	-0.00356	 0.19653	-0.01260	 0.24456	 0.24706	-0.05859	-0.92170	-0.27529	-0.24558	-0.51872	-0.16298	-0.38456	 6.07511	 3.93115	 0.59197	-0.23286	NULL
   290	 1.75824	 1.21220	 1.85386	 3.16425	 3.88045	 5.58649	-0.05735	 0.31252	 0.09053	 0.39826	-0.17026	 0.52302	-0.18442	 0.06924	-0.45511	-0.02195	-0.35520	-0.10735	-0.10292	 0.08857	-0.00548	 0.19926	-0.02514	 0.24363	 0.23010	-0.06930	-0.92170	-0.27529	-0.29327	-0.54202	-0.19016	-0.41982	 5.77930	 3.76279	 0.84611	-0.59779	NULL
   291	 1.66525	 1.14612	 1.79526	 3.13842	 3.73883	 5.41771	-0.06908	 0.27134	 0.05069	 0.39613	-0.21046	 0.51908	-0.21961	 0.06380	-0.50365	-0.03130	-0.40427	-0.11692	-0.13897	 0.08118	-0.01665	 0.19521	-0.06273	 0.24086	 0.21269	-0.09687	-0.92170	-0.27529	-0.36944	-0.55450	-0.23156	-0.43476	 5.41913	 3.56355	 0.90087	-0.88269	NULL
   292	 1.66114	 1.11893	 1.79526	 3.13842	 3.68615	 5.38253	-0.06908	 0.27134	 0.04283	 0.38770	-0.22162	 0.50427	-0.23705	 0.05939	-0.52610	-0.03622	-0.42423	-0.12271	-0.15671	 0.07794	-0.03167	 0.19663	-0.07524	 0.23993	 0.21269	-0.09687	-0.92170	-0.27529	-0.37883	-0.57148	-0.25222	-0.44222	 5.34363	 3.52701	 0.90087	-0.88269	NULL
   293	 1.64752	 1.13841	 1.84155	 3.14531	 3.69500	 5.40666	-0.05419	 0.28872	 0.00849	 0.37786	-0.26170	 0.50034	-0.25827	 0.04875	-0.55080	-0.04945	-0.44189	-0.12996	-0.16584	 0.07587	-0.03846	 0.19304	-0.10023	 0.23807	 0.24610	-0.09237	-0.87730	-0.29146	-0.40740	-0.56075	-0.23800	-0.46238	 5.36427	 3.53959	 0.70336	-0.80495	NULL
   294	 1.65161	 1.16562	 1.86616	 3.18323	 3.77385	 5.40456	-0.03929	 0.30614	-0.01011	 0.38484	-0.25280	 0.48752	-0.25861	 0.04340	-0.54970	-0.05570	-0.43136	-0.13054	-0.15446	 0.07979	-0.03602	 0.19619	-0.08278	 0.23187	 0.28008	-0.07099	-0.83283	-0.30765	-0.36944	-0.55450	-0.21733	-0.45493	 5.43810	 3.57265	 0.70336	-0.80495	NULL
   295	 1.70890	 1.21625	 1.92785	 3.27861	 3.88900	 5.49965	 0.04182	 0.34568	 0.00849	 0.37786	-0.23279	 0.48949	-0.24055	 0.04099	-0.51451	-0.06224	-0.35880	-0.12564	-0.09465	 0.09360	 0.00570	 0.20329	-0.05776	 0.23372	 0.44955	-0.01445	-0.74370	-0.34010	-0.28382	-0.52498	-0.16164	-0.46022	 5.63321	 3.67441	 0.70336	-0.80495	NULL
   296	 1.77608	 1.21999	 1.98700	 3.30482	 3.98691	 5.54652	 0.09006	 0.37428	 0.03497	 0.37928	-0.19264	 0.49339	-0.22006	 0.04096	-0.48116	-0.06142	-0.30326	-0.11973	-0.05468	 0.10230	 0.03878	 0.20952	-0.03768	 0.24271	 0.53526	 0.02248	-0.70603	-0.29933	-0.20725	-0.51247	-0.13762	-0.43894	 5.73376	 3.73067	 0.70336	-0.80495	NULL
   297	 1.83385	 1.27095	 2.04913	 3.40132	 4.11273	 5.66798	 0.20851	 0.40114	 0.08804	 0.38211	-0.10085	 0.51601	-0.17756	 0.04472	-0.39963	-0.05280	-0.18204	-0.10158	 0.02273	 0.11696	 0.11779	 0.21735	 0.02510	 0.24732	 0.72503	 0.09045	-0.57833	-0.29114	-0.07251	-0.45938	-0.05754	-0.42295	 5.91844	 3.83763	 0.95453	-1.16560	NULL
   298	 1.86974	 1.28663	 2.09632	 3.40842	 4.20294	 5.69079	 0.24206	 0.41225	 0.11463	 0.38351	-0.04015	 0.52185	-0.16079	 0.04721	-0.35786	-0.04507	-0.12558	-0.09254	 0.05461	 0.12061	 0.15495	 0.21808	 0.04528	 0.25632	 0.81171	 0.11046	-0.54023	-0.25012	-0.02414	-0.43587	-0.03334	-0.40159	 5.99465	 3.88725	 0.95453	-1.16560	NULL
   299	 1.94176	 1.31808	 2.14635	 3.48631	 4.34846	 5.75017	 0.30940	 0.43451	 0.16794	 0.38630	 0.07291	 0.54641	-0.13568	 0.04656	-0.28712	-0.02719	-0.04078	-0.07594	 0.09606	 0.12087	 0.20544	 0.22009	 0.09572	 0.26000	 0.89943	 0.14789	-0.41126	-0.24197	 0.00477	-0.38399	 0.03284	-0.36514	 6.13826	 3.96935	 0.95453	-1.16560	NULL
   300	 1.97790	 1.33385	 2.19387	 3.49350	 4.36697	 5.80056	 0.30626	 0.45871	 0.19465	 0.38769	 0.10476	 0.56327	-0.12729	 0.04341	-0.26090	-0.02023	-0.01130	-0.07016	 0.10673	 0.11922	 0.22066	 0.21863	 0.12100	 0.26182	 0.91714	 0.15889	-0.36575	-0.25854	 0.03406	-0.39498	 0.07161	-0.36408	 6.19358	 4.01284	 0.95453	-1.16560	NULL
   301	 2.03225	 1.35756	 2.23161	 3.55234	 4.43129	 5.86285	 0.36164	 0.43912	 0.20260	 0.39612	 0.18675	 0.57099	-0.12209	 0.03597	-0.23494	-0.01988	 0.02315	-0.06218	 0.11604	 0.11270	 0.23337	 0.21400	 0.13366	 0.26273	 0.95144	 0.14601	-0.37273	-0.20068	 0.06338	-0.40599	 0.11380	-0.34904	 6.31090	 4.07843	 0.95453	-1.16560	NULL
   302	 2.06860	 1.37340	 2.22161	 3.60419	 4.44055	 5.88831	 0.38014	 0.43257	 0.22139	 0.38907	 0.20732	 0.57291	-0.12071	 0.03106	-0.23165	-0.02700	 0.03206	-0.06012	 0.11585	 0.10956	 0.23725	 0.20851	 0.15132	 0.25646	 0.95144	 0.14601	-0.32707	-0.21730	 0.06338	-0.40599	 0.13159	-0.35551	 6.35897	 4.10811	 1.15204	-1.24334	NULL
   303	 2.07696	 1.42941	 2.28204	 3.63129	 4.48658	 5.90001	 0.39864	 0.42603	 0.22139	 0.38907	 0.22539	 0.54685	-0.12358	 0.02337	-0.23758	-0.04915	 0.04270	-0.05870	 0.11279	 0.10368	 0.23422	 0.19942	 0.15132	 0.25646	 0.93488	 0.16989	-0.33410	-0.15922	 0.08302	-0.43430	 0.15272	-0.34798	 6.45743	 4.15824	 1.15204	-1.24334	NULL
   304	 2.09517	 1.43739	 2.25934	 3.66361	 4.45904	 5.93939	 0.41716	 0.41948	 0.22139	 0.38907	 0.21383	 0.53193	-0.12394	 0.01802	-0.24472	-0.06241	 0.04495	-0.05819	 0.10934	 0.10010	 0.23367	 0.19349	 0.15132	 0.25646	 0.93488	 0.16989	-0.33410	-0.15922	 0.08302	-0.43430	 0.15607	-0.33397	 6.50388	 4.18448	 1.15204	-1.24334	NULL
   305	 2.13168	 1.45338	 2.30731	 3.67098	 4.49585	 5.92557	 0.41406	 0.44370	 0.24562	 0.37427	 0.19076	 0.50217	-0.13134	 0.01095	-0.25778	-0.08599	 0.04558	-0.05908	 0.10292	 0.09222	 0.22814	 0.18126	 0.15632	 0.24928	 0.93429	 0.15245	-0.34127	-0.10087	 0.05369	-0.42330	 0.19177	-0.34696	 6.59669	 4.23708	 1.09877	-0.96058	NULL
   306	 2.11758	 1.47354	 2.31994	 3.69088	 4.46826	 5.96502	 0.43259	 0.43714	 0.24562	 0.37427	 0.17025	 0.50028	-0.13730	 0.00771	-0.26523	-0.09406	 0.04397	-0.06049	 0.09886	 0.08779	 0.21680	 0.17724	 0.15632	 0.24928	 0.91714	 0.15889	-0.34127	-0.10087	 0.05369	-0.42330	 0.19513	-0.33293	 6.64116	 4.26636	 1.29716	-1.03867	NULL
   307	 2.12172	 1.50177	 2.35542	 3.67833	 4.47749	 5.99072	 0.42949	 0.46140	 0.23222	 0.37359	 0.13827	 0.48354	-0.14569	 0.00210	-0.26670	-0.10605	 0.03904	-0.06266	 0.08991	 0.08188	 0.20243	 0.16416	 0.16132	 0.24209	 0.88288	 0.17175	-0.34127	-0.10087	 0.08302	-0.43430	 0.21636	-0.32538	 6.73819	 4.32608	 1.24328	-0.75411	NULL
   308	 2.15413	 1.48960	 2.36812	 3.69824	 4.51440	 5.97686	 0.42949	 0.46140	 0.23222	 0.37359	 0.14724	 0.47061	-0.14920	 0.00123	-0.26513	-0.10832	 0.03743	-0.06407	 0.08703	 0.07917	 0.19554	 0.16057	 0.16132	 0.24209	 0.89943	 0.14789	-0.34127	-0.10087	 0.09275	-0.41702	 0.22308	-0.29724	 6.79044	 4.36314	 1.24328	-0.75411	NULL
   309	 2.19078	 1.50569	 2.39352	 3.73820	 4.56068	 5.98871	 0.44495	 0.47912	 0.23222	 0.37359	 0.13574	 0.45582	-0.15062	-0.00260	-0.25581	-0.10764	 0.03472	-0.06573	 0.08042	 0.07672	 0.18615	 0.15384	 0.15632	 0.24928	 0.90000	 0.16532	-0.29540	-0.11757	 0.08279	-0.37131	 0.26566	-0.28208	 6.91277	 4.44963	 1.44255	-0.83254	NULL
   310	 2.20914	 1.51374	 2.38328	 3.79090	 4.56997	 6.01450	 0.44495	 0.47912	 0.22681	 0.38133	 0.13574	 0.45582	-0.15062	-0.00260	-0.25014	-0.10641	 0.03472	-0.06573	 0.07767	 0.07555	 0.17734	 0.15298	 0.17399	 0.24300	 0.90000	 0.16532	-0.29540	-0.11757	 0.12193	-0.36497	 0.29038	-0.26036	 6.98488	 4.49622	 1.44255	-0.83254	NULL
   311	 2.26434	 1.53795	 2.40865	 3.83118	 4.62575	 6.05228	 0.46041	 0.49688	 0.22681	 0.38133	 0.17411	 0.43186	-0.14854	-0.00557	-0.24032	-0.10175	 0.03709	-0.06725	 0.07157	 0.07240	 0.17045	 0.14941	 0.18668	 0.24390	 0.90000	 0.16532	-0.24948	-0.13429	 0.14139	-0.33012	 0.32186	-0.21017	 7.13132	 4.59324	 1.64226	-0.91114	NULL
   312	 2.28278	 1.54603	 2.42135	 3.85137	 4.67237	 6.06423	 0.47902	 0.49030	 0.24562	 0.37427	 0.18306	 0.41896	-0.14751	-0.00705	-0.23683	-0.09970	 0.03772	-0.06815	 0.06821	 0.07038	 0.16163	 0.14856	 0.18167	 0.25108	 0.90000	 0.16532	-0.24948	-0.13429	 0.15112	-0.31265	 0.34328	-0.20252	 7.20182	 4.63658	 1.64226	-0.91114	NULL
   313	 2.33823	 1.57034	 2.39824	 3.88427	 4.68171	 6.09024	 0.49765	 0.48371	 0.25103	 0.36653	 0.19199	 0.40608	-0.15172	-0.00983	-0.23617	-0.09829	 0.03280	-0.07033	 0.05720	 0.06577	 0.15229	 0.14182	 0.19938	 0.24480	 0.88231	 0.15432	-0.24948	-0.13429	 0.19046	-0.30627	 0.38958	-0.17292	 7.30574	 4.70788	 1.64226	-0.91114	NULL
   314	 2.32394	 1.59076	 2.43406	 3.87160	 4.68171	 6.09024	 0.49765	 0.48371	 0.23222	 0.37359	 0.17151	 0.40424	-0.15520	-0.01072	-0.23761	-0.09858	 0.02832	-0.07134	 0.04950	 0.06318	 0.14348	 0.14098	 0.19938	 0.24480	 0.86462	 0.14333	-0.24948	-0.13429	 0.17060	-0.27762	 0.41110	-0.16524	 7.34305	 4.72991	 1.64226	-0.91114	NULL
   315	 2.34245	 1.59890	 2.39824	 3.88427	 4.65366	 6.13034	 0.49765	 0.48371	 0.22425	 0.36516	 0.15998	 0.38953	-0.16463	-0.01482	-0.24408	-0.09866	 0.01449	-0.07557	 0.03251	 0.05696	 0.12973	 0.13382	 0.20438	 0.23761	 0.81340	 0.16256	-0.24948	-0.13429	 0.17060	-0.27762	 0.45079	-0.16415	 7.37235	 4.75733	 1.58825	-0.62498	NULL
   316	 2.32813	 1.61938	 2.42135	 3.85137	 4.65366	 6.13034	 0.47902	 0.49030	 0.22966	 0.35743	 0.13953	 0.38769	-0.16884	-0.01761	-0.24614	-0.10040	 0.00560	-0.07762	 0.02268	 0.05407	 0.12287	 0.13025	 0.20438	 0.23761	 0.79579	 0.15158	-0.24948	-0.13429	 0.17060	-0.27762	 0.43602	-0.14322	 7.38036	 4.75846	 1.58825	-0.62498	NULL
   317	 2.32813	 1.61938	 2.40865	 3.83118	 4.64438	 6.10425	 0.46041	 0.49688	 0.19751	 0.36380	 0.09873	 0.38401	-0.18106	-0.02066	-0.25768	-0.10024	-0.01898	-0.08123	 0.00138	 0.04727	 0.10284	 0.12541	 0.19168	 0.23672	 0.74419	 0.15336	-0.24948	-0.13429	 0.17060	-0.27762	 0.45420	-0.14984	 7.37235	 4.75733	 1.33261	-0.25791	NULL
   318	 2.32813	 1.61938	 2.37292	 3.84382	 4.67237	 6.06423	 0.48212	 0.46597	 0.18416	 0.36311	 0.07835	 0.38217	-0.18907	-0.02094	-0.26493	-0.09920	-0.03055	-0.08495	-0.00901	 0.04353	 0.09597	 0.12185	 0.17399	 0.24300	 0.70968	 0.14876	-0.29540	-0.11757	 0.17060	-0.27762	 0.43941	-0.12889	 7.36654	 4.75311	 1.33261	-0.25791	NULL
   319	 2.32813	 1.61938	 2.36028	 3.82364	 4.66300	 6.03830	 0.46353	 0.47255	 0.15208	 0.36945	 0.02879	 0.39129	-0.20054	-0.02208	-0.27503	-0.09875	-0.05888	-0.09047	-0.03085	 0.03588	 0.07160	 0.11658	 0.16631	 0.23492	 0.65832	 0.15051	-0.34127	-0.10087	 0.17060	-0.27762	 0.44280	-0.11454	 7.35677	 4.74182	 1.53325	-0.33688	NULL
   320	 2.32813	 1.61938	 2.38328	 3.79090	 4.65363	 6.01242	 0.46353	 0.47255	 0.15747	 0.36173	 0.00850	 0.38943	-0.20679	-0.02191	-0.28228	-0.09771	-0.07387	-0.09292	-0.04282	 0.03271	 0.05846	 0.11530	 0.15366	 0.23402	 0.62448	 0.16321	-0.39442	-0.02556	 0.20022	-0.28874	 0.42797	-0.09354	 7.35096	 4.73760	 1.53325	-0.33688	NULL
   321	 2.32813	 1.61938	 2.35792	 3.75079	 4.63485	 5.96086	 0.44805	 0.45484	 0.12543	 0.36807	-0.03201	 0.38569	-0.21620	-0.02601	-0.29536	-0.09529	-0.10151	-0.09933	-0.06664	 0.02632	 0.03605	 0.10732	 0.15098	 0.21878	 0.57334	 0.16489	-0.44021	-0.00889	 0.18033	-0.26007	 0.43133	-0.07914	 7.33912	 4.72929	 1.27607	 0.03240	NULL
   322	 2.32813	 1.61938	 2.32238	 3.76336	 4.59773	 5.97479	 0.44805	 0.45484	 0.11213	 0.36737	-0.02314	 0.37290	-0.22417	-0.02629	-0.30261	-0.09425	-0.11585	-0.10267	-0.07855	 0.02314	 0.01857	 0.10563	 0.13832	 0.21788	 0.55601	 0.15390	-0.44021	-0.00889	 0.18033	-0.26007	 0.43469	-0.06473	 7.33115	 4.72809	 1.47714	-0.04674	NULL
   323	 2.34245	 1.59890	 2.30976	 3.74334	 4.54205	 5.93732	 0.43259	 0.43714	 0.09883	 0.36668	-0.03452	 0.35827	-0.23533	-0.03080	-0.31772	-0.09358	-0.14516	-0.10844	-0.09973	 0.01637	-0.00571	 0.10037	 0.11802	 0.20893	 0.52187	 0.14925	-0.43276	-0.06756	 0.19006	-0.24247	 0.41982	-0.04366	 7.31339	 4.72212	 1.21840	 0.32478	NULL
   324	 2.34245	 1.59890	 2.29713	 3.72335	 4.50514	 5.95118	 0.43259	 0.43714	 0.09093	 0.35827	-0.05472	 0.35641	-0.24054	-0.03212	-0.32482	-0.09509	-0.15945	-0.11178	-0.11103	 0.01404	-0.01879	 0.09909	 0.12300	 0.20177	 0.48781	 0.14458	-0.47842	-0.05094	 0.17011	-0.21370	 0.40493	-0.02257	 7.30558	 4.71439	 1.47714	-0.04674	NULL
   325	 2.32394	 1.59076	 2.28453	 3.70340	 4.44979	 5.91382	 0.41716	 0.41948	 0.06439	 0.35688	-0.09507	 0.35270	-0.25649	-0.03266	-0.34195	-0.09617	-0.18977	-0.11781	-0.13158	 0.00812	-0.04110	 0.09113	 0.09775	 0.19998	 0.45339	 0.12266	-0.47104	-0.10937	 0.17011	-0.21370	 0.42316	-0.02921	 7.27608	 4.70008	 1.47714	-0.04674	NULL
   326	 2.33823	 1.57034	 2.27193	 3.68349	 4.44055	 5.88831	 0.41716	 0.41948	 0.05113	 0.35618	-0.09507	 0.35270	-0.26068	-0.03544	-0.34980	-0.09657	-0.20749	-0.11988	-0.14188	 0.00440	-0.06041	 0.09213	 0.08514	 0.19909	 0.43620	 0.11172	-0.47104	-0.10937	 0.17011	-0.21370	 0.42316	-0.02921	 7.26433	 4.69173	 1.47714	-0.04674	NULL
   327	 2.31972	 1.56223	 2.25934	 3.66361	 4.42202	 5.83746	 0.38014	 0.43257	 0.03788	 0.35548	-0.11521	 0.35083	-0.27833	-0.03642	-0.36472	-0.09846	-0.24209	-0.12694	-0.16664	-0.00212	-0.08457	 0.08687	 0.05994	 0.19729	 0.40189	 0.08988	-0.51655	-0.09280	 0.14046	-0.20257	 0.40493	-0.02257	 7.24663	 4.67928	 1.27607	 0.03240	NULL
   328	 2.28697	 1.57452	 2.25934	 3.66361	 4.41275	 5.81214	 0.36164	 0.43912	 0.02464	 0.35478	-0.13533	 0.34897	-0.28632	-0.03669	-0.37179	-0.09999	-0.26180	-0.13155	-0.18113	-0.00488	-0.09758	 0.08558	 0.04735	 0.19639	 0.38476	 0.07898	-0.51655	-0.09280	 0.14046	-0.20257	 0.38672	-0.01594	 7.23871	 4.67810	 1.27607	 0.03240	NULL
   329	 2.28697	 1.57452	 2.24676	 3.64377	 4.40348	 5.78686	 0.32471	 0.45218	 0.01141	 0.35407	-0.15542	 0.34710	-0.30290	-0.03916	-0.38888	-0.10107	-0.30780	-0.14030	-0.21261	-0.01003	-0.12792	 0.08259	 0.02220	 0.19459	 0.33436	 0.08060	-0.56197	-0.07627	 0.11083	-0.19145	 0.38672	-0.01594	 7.24063	 4.68164	 1.27607	 0.03240	NULL
   330	 2.28697	 1.57452	 2.24676	 3.64377	 4.40348	 5.78686	 0.34629	 0.42146	-0.00181	 0.35337	-0.14660	 0.33439	-0.31261	-0.03985	-0.39591	-0.10260	-0.33022	-0.14455	-0.22851	-0.01070	-0.14091	 0.08131	 0.00966	 0.19367	 0.31731	 0.06971	-0.56197	-0.07627	 0.11083	-0.19145	 0.38672	-0.01594	 7.24643	 4.68586	 1.27607	 0.03240	NULL
   331	 2.28697	 1.57452	 2.24676	 3.64377	 4.37620	 5.82585	 0.32784	 0.42799	-0.00965	 0.34498	-0.19553	 0.34335	-0.32572	-0.04145	-0.40863	-0.10531	-0.36085	-0.14969	-0.24215	-0.00954	-0.16064	 0.07647	-0.00290	 0.19277	 0.28408	 0.08219	-0.60734	-0.05975	 0.09085	-0.16264	 0.39003	-0.00146	 7.26190	 4.70782	 1.01733	 0.40392	NULL
   332	 2.31972	 1.56223	 2.24676	 3.64377	 4.37620	 5.82585	 0.34629	 0.42146	-0.02285	 0.34428	-0.19553	 0.34335	-0.32572	-0.04145	-0.40566	-0.10726	-0.36085	-0.14969	-0.23453	-0.00541	-0.16064	 0.07647	-0.02040	 0.19898	 0.28447	 0.09933	-0.60734	-0.05975	 0.13012	-0.15604	 0.39334	 0.01304	 7.28162	 4.71737	 1.01733	 0.40392	NULL
   333	 2.33823	 1.57034	 2.25934	 3.66361	 4.38543	 5.85120	 0.41406	 0.44370	-0.00428	 0.33731	-0.16668	 0.33252	-0.31292	-0.03649	-0.38153	-0.10466	-0.31421	-0.14384	-0.18496	 0.01072	-0.13035	 0.07947	 0.00966	 0.19367	 0.40276	 0.12428	-0.61492	-0.00125	 0.19855	-0.09606	 0.41489	 0.02092	 7.31086	 4.74475	 1.47714	-0.04674	NULL
   334	 2.32394	 1.59076	 2.27193	 3.68349	 4.39464	 5.87661	 0.46663	 0.44827	 0.00893	 0.33801	-0.15542	 0.34710	-0.29461	-0.03357	-0.35593	-0.10176	-0.26806	-0.13711	-0.14718	 0.02212	-0.09758	 0.08558	 0.01724	 0.20171	 0.48825	 0.16187	-0.56950	-0.01778	 0.24783	-0.07153	 0.41819	 0.03546	 7.32655	 4.75371	 1.47714	-0.04674	NULL
   335	 2.32813	 1.61938	 2.28453	 3.70340	 4.46798	 5.84908	 0.55050	 0.48829	 0.04325	 0.34779	-0.09507	 0.35270	-0.24674	-0.02326	-0.29203	-0.09069	-0.15181	-0.11719	-0.06231	 0.04546	-0.01252	 0.09681	 0.08016	 0.20623	 0.69421	 0.20731	-0.48592	 0.00775	 0.38682	-0.01558	 0.47635	 0.03004	 7.33043	 4.76082	 1.67865	-0.12605	NULL
   336	 2.36099	 1.60705	 2.28453	 3.70340	 4.46798	 5.84908	 0.56298	 0.53050	 0.06439	 0.35688	-0.08375	 0.36731	-0.22240	-0.01714	-0.26000	-0.08515	-0.09493	-0.10501	-0.02277	 0.05480	 0.02921	 0.10377	 0.12300	 0.20177	 0.76425	 0.25163	-0.39442	-0.02556	 0.46698	-0.00220	 0.51635	 0.03125	 7.32261	 4.75309	 1.41991	 0.24547	NULL
   337	 2.36099	 1.60705	 2.30731	 3.67098	 4.45867	 5.82370	 0.63484	 0.52845	 0.11213	 0.36737	-0.00289	 0.37476	-0.17681	-0.00916	-0.21091	-0.07342	 0.00097	-0.08388	 0.03415	 0.06649	 0.09735	 0.11326	 0.16365	 0.21967	 0.86893	 0.28329	-0.35599	 0.01662	 0.53696	 0.05887	 0.54140	 0.05373	 7.28162	 4.71737	 1.62186	 0.16598	NULL
   338	 2.36099	 1.60705	 2.33005	 3.63860	 4.44934	 5.79840	 0.63174	 0.55295	 0.13875	 0.36876	 0.01738	 0.37662	-0.16284	-0.00566	-0.19379	-0.06977	 0.03372	-0.07530	 0.05148	 0.06887	 0.11930	 0.11537	 0.18899	 0.22147	 0.90330	 0.27039	-0.30998	-0.00014	 0.54689	 0.07706	 0.57817	 0.04034	 7.25424	 4.69358	 1.88060	-0.20554	NULL
   339	 2.34245	 1.59890	 2.30471	 3.59902	 4.39418	 5.76165	 0.63174	 0.55295	 0.17875	 0.37084	 0.06689	 0.36751	-0.14155	-0.00382	-0.17822	-0.06387	 0.06859	-0.06415	 0.06704	 0.06866	 0.14567	 0.11791	 0.20938	 0.23043	 0.90382	 0.28798	-0.26390	-0.01691	 0.55680	 0.09530	 0.59996	 0.04824	 7.19581	 4.63894	 1.67865	-0.12605	NULL
   340	 2.30963	 1.61122	 2.29206	 3.57928	 4.38488	 5.73650	 0.65362	 0.52181	 0.17875	 0.37084	 0.06689	 0.36751	-0.13806	-0.00295	-0.17613	-0.06214	 0.07641	-0.06234	 0.06803	 0.06724	 0.15200	 0.11560	 0.22209	 0.23132	 0.90330	 0.27039	-0.21776	-0.03371	 0.55680	 0.09530	 0.59996	 0.04824	 7.16273	 4.61099	 1.67865	-0.12605	NULL
   341	 2.33823	 1.57034	 2.27942	 3.55957	 4.29367	 5.71362	 0.63484	 0.52845	 0.19751	 0.36380	 0.07577	 0.35470	-0.13247	-0.00505	-0.17628	-0.05956	 0.07577	-0.06145	 0.06407	 0.06440	 0.15200	 0.11560	 0.22209	 0.23132	 0.85177	 0.28974	-0.21776	-0.03371	 0.54689	 0.07706	 0.59996	 0.04824	 7.09664	 4.54881	 1.88060	-0.20554	NULL
   342	 2.31972	 1.56223	 2.26677	 3.53991	 4.27519	 5.66367	 0.65668	 0.49736	 0.19751	 0.36380	 0.04656	 0.36566	-0.13526	-0.00400	-0.17850	-0.05872	 0.07305	-0.06312	 0.05966	 0.06223	 0.15392	 0.11288	 0.22708	 0.22414	 0.85128	 0.27215	-0.21776	-0.03371	 0.54689	 0.07706	 0.59996	 0.04824	 7.06165	 4.51753	 1.88060	-0.20554	NULL
   343	 2.30123	 1.55413	 2.24150	 3.50068	 4.18463	 5.64099	 0.63791	 0.50400	 0.19751	 0.36380	 0.05544	 0.35286	-0.13702	-0.00443	-0.18137	-0.05933	 0.06426	-0.06721	 0.04814	 0.05832	 0.14456	 0.10618	 0.23209	 0.21696	 0.81651	 0.26745	-0.21776	-0.03371	 0.54689	 0.07706	 0.59996	 0.04824	 6.99571	 4.45553	 1.88060	-0.20554	NULL
   344	 2.31548	 1.53376	 2.22890	 3.48111	 4.16626	 5.59144	 0.63791	 0.50400	 0.20292	 0.35607	 0.06431	 0.34007	-0.14155	-0.00382	-0.18279	-0.05964	 0.05757	-0.06875	 0.04154	 0.05588	 0.14209	 0.10303	 0.23708	 0.20979	 0.79891	 0.25632	-0.21776	-0.03371	 0.53696	 0.05887	 0.59996	 0.04824	 6.96061	 4.43079	 1.88060	-0.20554	NULL
   345	 2.24591	 1.52987	 2.20369	 3.44209	 4.10294	 5.53094	 0.65972	 0.47295	 0.18956	 0.35538	 0.04399	 0.33825	-0.14403	-0.00616	-0.18409	-0.06251	 0.04246	-0.07120	 0.03270	 0.05157	 0.12642	 0.09864	 0.22438	 0.20890	 0.76425	 0.25163	-0.21054	-0.09251	 0.53696	 0.05887	 0.59996	 0.04824	 6.90616	 4.39021	 1.67865	-0.12605	NULL
   346	 2.21331	 1.54211	 2.19109	 3.42262	 4.09376	 5.50641	 0.65972	 0.47295	 0.19496	 0.34766	 0.05285	 0.32547	-0.14575	-0.00662	-0.18550	-0.06281	 0.03754	-0.07338	 0.02837	 0.05098	 0.12394	 0.09550	 0.20667	 0.21519	 0.78083	 0.22772	-0.21054	-0.09251	 0.53696	 0.05887	 0.59996	 0.04824	 6.88291	 4.37368	 1.67865	-0.12605	NULL
   347	 2.20914	 1.51374	 2.17850	 3.40320	 4.06622	 5.43312	 0.67848	 0.46632	 0.18700	 0.33926	 0.03255	 0.32365	-0.14648	-0.00852	-0.18772	-0.06198	 0.02751	-0.07568	 0.02574	 0.05138	 0.11516	 0.09466	 0.21167	 0.20801	 0.78033	 0.21024	-0.21054	-0.09251	 0.53696	 0.05887	 0.61839	 0.04152	 6.84605	 4.34549	 1.62186	 0.16598	NULL
   348	 2.17661	 1.52595	 2.14364	 3.41553	 4.05702	 5.40881	 0.67848	 0.46632	 0.16827	 0.34629	 0.03255	 0.32365	-0.14648	-0.00852	-0.18850	-0.06085	 0.02419	-0.07646	 0.02730	 0.05082	 0.10886	 0.09695	 0.21167	 0.20801	 0.78033	 0.21024	-0.26390	-0.01691	 0.53696	 0.05887	 0.61839	 0.04152	 6.82669	 4.32964	 1.62186	 0.16598	NULL
   349	 2.15829	 1.51789	 2.13110	 3.39612	 4.00320	 5.37363	 0.65972	 0.47295	 0.16827	 0.34629	 0.04140	 0.31089	-0.14543	-0.01002	-0.18785	-0.05942	 0.01974	-0.07748	 0.02574	 0.05138	 0.10639	 0.09382	 0.21666	 0.20084	 0.78033	 0.21024	-0.27133	 0.04219	 0.56744	 0.04743	 0.61839	 0.04152	 6.78409	 4.29736	 1.62186	 0.16598	NULL
   350	 2.17244	 1.49765	 2.15334	 3.36446	 3.95871	 5.36273	 0.65972	 0.47295	 0.16827	 0.34629	 0.04140	 0.31089	-0.14717	-0.01046	-0.18929	-0.05971	 0.01512	-0.07647	 0.02248	 0.05095	 0.10201	 0.09340	 0.21666	 0.20084	 0.76327	 0.21665	-0.22511	 0.02537	 0.56744	 0.04743	 0.61839	 0.04152	 6.76079	 4.28100	 1.82434	 0.08629	NULL
   351	 2.15413	 1.48960	 2.16295	 3.31356	 3.90524	 5.32774	 0.64096	 0.47959	 0.15493	 0.34562	 0.01228	 0.32183	-0.14862	-0.01428	-0.19581	-0.05979	 0.00783	-0.07712	 0.01474	 0.04678	 0.10144	 0.08755	 0.21666	 0.20084	 0.72919	 0.22944	-0.22511	 0.02537	 0.51641	 0.08850	 0.61839	 0.04152	 6.71819	 4.24881	 1.82434	 0.08629	NULL
   352	 2.13584	 1.48157	 2.15037	 3.29432	 3.86103	 5.31687	 0.62223	 0.48621	 0.16032	 0.33791	 0.01228	 0.32183	-0.15489	-0.01411	-0.20087	-0.05957	 0.00165	-0.07751	 0.01022	 0.04308	 0.09460	 0.08399	 0.22165	 0.19367	 0.71169	 0.21837	-0.27133	 0.04219	 0.51641	 0.08850	 0.61839	 0.04152	 6.69483	 4.23883	 1.82434	 0.08629	NULL
   353	 2.11758	 1.47354	 2.10313	 3.28737	 3.81694	 5.30603	 0.62528	 0.46183	 0.15239	 0.32953	 0.02112	 0.30908	-0.16535	-0.01674	-0.21450	-0.06117	-0.01628	-0.07958	-0.00470	 0.03562	 0.07897	 0.07961	 0.22664	 0.18652	 0.67673	 0.19627	-0.26390	-0.01691	 0.50653	 0.07030	 0.61839	 0.04152	 6.67361	 4.21957	 1.82434	 0.08629	NULL
   354	 2.11758	 1.47354	 2.10313	 3.28737	 3.81694	 5.30603	 0.60656	 0.46846	 0.13908	 0.32884	 0.02996	 0.29634	-0.17232	-0.01849	-0.22243	-0.06155	-0.02861	-0.08037	-0.01399	 0.03202	 0.07214	 0.07606	 0.20895	 0.19280	 0.65930	 0.18523	-0.26390	-0.01691	 0.49665	 0.05213	 0.61499	 0.02693	 6.66393	 4.21486	 1.82434	 0.08629	NULL
